Data from no-cure_1e-6_Relative_16-13-54-109.txt Node
Date: Fri Aug 18 16:13:54 EDT 2023
User: UV-vis
Spectrometer: FLMS04918
Trigger mode: 0
Integration Time (sec): 1.000000E-1
Scans to average: 3
Electric dark correction enabled: true
Nonlinearity correction enabled: false
Boxcar width: 3
XAxis mode: Wavelengths
Number of Pixels in Spectrum: 2048
>>>>>Begin Spectral Data<<<<<
179.23	26.44172
179.611	23.89977
179.992	22.45046
180.373	20.73268
180.754	13.91876
181.134	8.13732
181.515	-8.54484
181.896	17.07706
182.276	21.22376
182.657	-5.40195
183.038	-55.23416
183.418	-30.13621
183.799	-505.55556
184.179	3.96371
184.56	60.8747
184.94	27.89954
185.32	-9.76587
185.701	-23.18874
186.081	-51.76089
186.461	-49.39247
186.842	17.7319
187.222	19.33697
187.602	19.69663
187.982	19.77109
188.362	19.65517
188.742	19.80653
189.122	19.70274
189.502	19.68964
189.882	19.73399
190.262	19.7002
190.642	19.68582
191.022	19.84933
191.402	19.79218
191.781	19.97739
192.161	20.02538
192.541	20.0018
192.92	19.98606
193.3	19.98706
193.68	19.95583
194.059	19.86249
194.439	19.74288
194.818	19.74835
195.198	19.83314
195.577	19.85915
195.957	19.84859
196.336	19.77255
196.715	19.87138
197.094	19.88915
197.474	19.96163
197.853	19.91223
198.232	19.86841
198.611	19.93627
198.99	19.98366
199.369	19.9792
199.748	20.03676
200.127	19.99266
200.506	20.10133
200.885	20.09201
201.264	20.01777
201.643	20.09556
202.022	20.10702
202.401	20.10391
202.779	20.14084
203.158	19.97227
203.537	20.00972
203.915	20.07536
204.294	19.91305
204.673	19.98174
205.051	19.97889
205.43	19.94434
205.808	19.94943
206.187	19.88294
206.565	19.9142
206.943	19.9722
207.322	19.90897
207.7	19.98039
208.078	19.97817
208.456	20.04084
208.835	20.11312
209.213	19.99858
209.591	19.99954
209.969	20.01674
210.347	19.88171
210.725	19.81971
211.103	19.81239
211.481	19.80948
211.859	19.88152
212.237	19.81338
212.614	19.85052
212.992	19.88413
213.37	19.97341
213.748	20.01427
214.125	20.08054
214.503	20.05836
214.881	20.0513
215.258	19.97015
215.636	19.96836
216.013	19.89942
216.391	19.93027
216.768	19.8588
217.145	19.83942
217.523	19.9479
217.9	19.98695
218.277	19.97017
218.655	19.97932
219.032	19.91378
219.409	19.97871
219.786	19.96766
220.163	19.93765
220.54	19.89037
220.917	19.78866
221.294	19.79736
221.671	19.76565
222.048	19.70613
222.425	19.77142
222.802	19.74493
223.179	19.73626
223.556	19.71249
223.932	19.67179
224.309	19.6151
224.686	19.59175
225.062	19.55409
225.439	19.55566
225.815	19.43996
226.192	19.501
226.568	19.56869
226.945	19.56513
227.321	19.61215
227.698	19.69676
228.074	19.72657
228.45	19.84795
228.827	19.86511
229.203	19.80872
229.579	19.83667
229.955	19.81162
230.331	19.75504
230.707	19.84727
231.083	19.76866
231.46	19.80108
231.835	19.83811
232.211	19.88832
232.587	19.80926
232.963	19.6821
233.339	19.58856
233.715	19.68914
234.091	19.75964
234.466	19.79493
234.842	19.72885
235.218	19.87017
235.593	19.96046
235.969	20.0139
236.344	20.0118
236.72	19.95874
237.095	19.98234
237.471	19.96938
237.846	19.86881
238.222	19.8608
238.597	19.79233
238.972	19.68712
239.348	19.66296
239.723	19.61133
240.098	19.67409
240.473	19.67809
240.848	19.70406
241.223	19.70943
241.598	19.83613
241.973	19.90567
242.348	19.93081
242.723	19.87281
243.098	19.9319
243.473	19.87701
243.848	19.8446
244.223	19.86291
244.597	19.82375
244.972	19.75603
245.347	19.81309
245.721	19.82192
246.096	19.8459
246.47	19.98936
246.845	19.94607
247.219	19.89084
247.594	19.85798
247.968	19.80625
248.343	19.73461
248.717	19.86745
249.091	19.71088
249.466	19.66412
249.84	19.72521
250.214	19.78883
250.588	19.79697
250.962	19.85537
251.336	19.70218
251.71	19.80986
252.084	19.84126
252.458	19.81228
252.832	19.81237
253.206	19.84197
253.58	19.80556
253.954	19.77082
254.328	19.65682
254.702	19.62838
255.075	19.59466
255.449	19.56631
255.823	19.58584
256.196	19.53444
256.57	19.61914
256.943	19.62586
257.317	19.63984
257.69	19.69324
258.064	19.63244
258.437	19.51704
258.81	19.53049
259.184	19.44981
259.557	19.49035
259.93	19.41839
260.303	19.40333
260.677	19.4008
261.05	19.52615
261.423	19.52978
261.796	19.5884
262.169	19.5313
262.542	19.50382
262.915	19.39423
263.288	19.40257
263.661	19.29829
264.033	19.32515
264.406	19.22568
264.779	19.21628
265.152	19.29163
265.524	19.30889
265.897	19.3452
266.27	19.38578
266.642	19.40722
267.015	19.45051
267.387	19.4512
267.76	19.42931
268.132	19.43417
268.504	19.3911
268.877	19.30316
269.249	19.23565
269.621	19.20893
269.994	19.23389
270.366	19.20924
270.738	19.21976
271.11	19.22417
271.482	19.21998
271.854	19.19796
272.226	19.12025
272.598	19.10172
272.97	19.14648
273.342	19.13096
273.714	19.21377
274.086	19.24026
274.458	19.23227
274.829	19.30739
275.201	19.35433
275.573	19.31273
275.944	19.32264
276.316	19.17716
276.688	19.1536
277.059	19.19531
277.431	19.16351
277.802	19.08637
278.173	19.0839
278.545	19.02067
278.916	19.04333
279.287	19.01989
279.659	18.94519
280.03	18.88394
280.401	18.85665
280.772	18.82402
281.143	18.759
281.515	18.68731
281.886	18.66332
282.257	18.69132
282.628	18.94159
282.998	19.4448
283.369	20.36782
283.74	21.94041
284.111	24.07779
284.482	27.0699
284.853	31.03361
285.223	35.98806
285.594	42.04684
285.965	49.03868
286.335	56.79873
286.706	65.09039
287.076	73.47204
287.447	81.45791
287.817	88.90547
288.188	95.41414
288.558	100.73142
288.928	104.69125
289.299	107.47163
289.669	109.22793
290.039	110.2164
290.409	110.43928
290.779	110.35762
291.149	110.37577
291.52	110.37642
291.89	110.37436
292.26	110.37481
292.629	110.46811
292.999	110.71452
293.369	110.94641
293.739	110.95857
294.109	110.9578
294.479	110.95833
294.848	110.95789
295.218	110.95719
295.588	110.95822
295.957	110.95622
296.327	110.95644
296.696	110.95574
297.066	110.95541
297.435	110.95576
297.805	110.95666
298.174	110.95714
298.544	110.95721
298.913	110.95703
299.282	110.9587
299.651	110.95943
300.021	110.95936
300.39	110.95897
300.759	110.9578
301.128	110.95853
301.497	110.9578
301.866	110.95666
302.235	110.95756
302.604	110.95741
302.973	110.95807
303.342	110.95804
303.71	110.95815
304.079	110.95804
304.448	110.95897
304.817	110.95754
305.185	110.95763
305.554	110.95763
305.923	110.95835
306.291	110.95793
306.66	110.95826
307.028	110.95881
307.397	110.9589
307.765	110.95912
308.133	110.95989
308.502	110.9591
308.87	110.95954
309.238	110.95954
309.606	110.95868
309.975	110.9598
310.343	110.96037
310.711	110.95919
311.079	110.95998
311.447	110.96108
311.815	110.96169
312.183	110.96145
312.551	110.96156
312.919	110.96055
313.286	110.96106
313.654	110.9611
314.022	110.95894
314.39	110.95752
314.757	110.95749
315.125	110.95631
315.492	110.95686
315.86	110.95648
316.228	110.95556
316.595	110.95688
316.962	110.95868
317.33	110.95857
317.697	110.95872
318.065	110.95941
318.432	110.95941
318.799	110.95969
319.166	110.95919
319.534	110.95897
319.901	110.95985
320.268	110.96075
320.635	110.9602
321.002	110.96055
321.369	110.9602
321.736	110.96062
322.103	110.95934
322.47	110.95974
322.836	110.96055
323.203	110.95998
323.57	110.95888
323.937	110.95901
324.303	110.95919
324.67	110.95996
325.037	110.95949
325.403	110.95785
325.77	110.9587
326.136	110.9611
326.503	110.96095
326.869	110.96064
327.235	110.96011
327.602	110.95998
327.968	110.96075
328.334	110.96114
328.7	110.96073
329.067	110.96205
329.433	110.96251
329.799	110.96321
330.165	110.96194
330.531	110.96255
330.897	110.96233
331.263	110.96119
331.629	110.96114
331.995	110.96073
332.36	110.96081
332.726	110.96233
333.092	110.96231
333.458	110.96207
333.823	110.9618
334.189	110.96132
334.554	110.96141
334.92	110.96046
335.286	110.9593
335.651	110.95721
336.016	110.95626
336.382	110.95617
336.747	110.95585
337.113	110.95596
337.478	110.95672
337.843	110.95785
338.208	110.95833
338.573	110.95914
338.939	110.9591
339.304	110.95967
339.669	110.95985
340.034	110.95982
340.399	110.96013
340.764	110.96099
341.129	110.96059
341.493	110.96048
341.858	110.96059
342.223	110.9611
342.588	110.96152
342.952	110.9604
343.317	110.9602
343.682	110.96031
344.046	110.9607
344.411	110.96081
344.775	110.95936
345.14	110.95976
345.504	110.96053
345.869	110.96022
346.233	110.96046
346.597	110.96064
346.962	110.96062
347.326	110.96066
347.69	110.96007
348.054	110.96009
348.418	110.96066
348.782	110.96046
349.146	110.95987
349.51	110.95879
349.874	110.95923
350.238	110.95956
350.602	110.9593
350.966	110.95947
351.33	110.95894
351.693	110.95965
352.057	110.96068
352.421	110.96134
352.784	110.9604
353.148	110.95974
353.512	110.95894
353.875	110.96044
354.239	110.96068
354.602	110.95965
354.966	110.95861
355.329	110.9596
355.692	110.96073
356.056	110.96121
356.419	110.96042
356.782	110.9609
357.145	110.96117
357.508	110.96114
357.871	110.96024
358.234	110.95927
358.597	110.95877
358.96	110.95868
359.323	110.95712
359.686	110.95659
360.049	110.95789
360.412	110.9582
360.775	110.95897
361.137	110.9582
361.5	110.95807
361.863	110.95879
362.225	110.96053
362.588	110.96064
362.951	110.96106
363.313	110.96022
363.675	110.96097
364.038	110.96081
364.4	110.9611
364.763	110.95976
365.125	110.95941
365.487	110.95947
365.849	110.96015
366.212	110.95919
366.574	110.96055
366.936	110.96101
367.298	110.96156
367.66	110.96123
368.022	110.96068
368.384	110.96026
368.746	110.96262
369.108	110.96103
369.469	110.95976
369.831	110.95892
370.193	110.95866
370.555	110.95952
370.916	110.95987
371.278	110.95835
371.64	110.9578
372.001	110.95833
372.363	110.95769
372.724	110.95881
373.086	110.95897
373.447	110.95941
373.808	110.96033
374.17	110.96024
374.531	110.95965
374.892	110.96154
375.253	110.95954
375.615	110.95894
375.976	110.95723
376.337	110.95705
376.698	110.95921
377.059	110.95998
377.42	110.96092
377.781	110.96249
378.141	110.9624
378.502	110.9637
378.863	110.96326
379.224	110.96235
379.585	110.96196
379.945	110.96187
380.306	110.96183
380.666	110.9624
381.027	110.96211
381.388	110.96161
381.748	110.96194
382.108	110.96187
382.469	110.96009
382.829	110.95952
383.19	110.95914
383.55	110.95905
383.91	110.95976
384.27	110.95842
384.63	110.95752
384.991	110.95837
385.351	110.958
385.711	110.95617
386.071	110.95615
386.431	110.95611
386.791	110.95622
387.15	110.95822
387.51	110.95811
387.87	110.95793
388.23	110.95941
388.589	110.96024
388.949	110.96097
389.309	110.96218
389.668	110.96114
390.028	110.96079
390.387	110.96185
390.747	110.96178
391.106	110.96231
391.466	110.96163
391.825	110.96229
392.184	110.96304
392.544	110.96363
392.903	110.96339
393.262	110.96299
393.621	110.9618
393.98	110.96273
394.339	110.96108
394.698	110.95967
395.057	110.95989
395.416	110.96018
395.775	110.96073
396.134	110.96077
396.493	110.95956
396.852	110.96029
397.211	110.96169
397.569	110.96154
397.928	110.96156
398.287	110.96106
398.645	110.96229
399.004	110.96207
399.362	110.96249
399.721	110.96172
400.079	110.96106
400.438	110.96189
400.796	110.96297
401.154	110.96227
401.512	110.96238
401.871	110.96235
402.229	110.96304
402.587	110.964
402.945	110.96268
403.303	110.96106
403.661	110.96099
404.019	110.96117
404.377	110.96051
404.735	110.95963
405.093	110.95782
405.451	110.95857
405.808	110.95919
406.166	110.95851
406.524	110.95866
406.882	110.95697
407.239	110.95736
407.597	110.95822
407.954	110.95765
408.312	110.9582
408.669	110.9582
409.027	110.95802
409.384	110.95998
409.741	110.95927
410.099	110.95811
410.456	110.95756
410.813	110.95657
411.17	110.95655
411.527	110.95604
411.884	110.95574
412.242	110.9571
412.599	110.95892
412.956	110.95989
413.312	110.9609
413.669	110.96209
414.026	110.96299
414.383	110.96323
414.74	110.96167
415.096	110.96064
415.453	110.95985
415.81	110.96013
416.166	110.95813
416.523	110.95736
416.879	110.95789
417.236	110.95908
417.592	110.95894
417.949	110.95897
418.305	110.95901
418.661	110.95978
419.018	110.96084
419.374	110.95987
419.73	110.96068
420.086	110.96154
420.442	110.96136
420.798	110.96119
421.154	110.96136
421.51	110.96125
421.866	110.96154
422.222	110.95998
422.578	110.95965
422.934	110.95974
423.29	110.96015
423.646	110.96002
424.001	110.95888
424.357	110.95789
424.713	110.95905
425.068	110.95855
425.424	110.95861
425.779	110.95934
426.135	110.96075
426.49	110.96156
426.845	110.9626
427.201	110.96255
427.556	110.96273
427.911	110.9635
428.266	110.96165
428.622	110.96031
428.977	110.96033
429.332	110.96123
429.687	110.96099
430.042	110.96097
430.397	110.95965
430.752	110.96042
431.107	110.9609
431.461	110.96092
431.816	110.9604
432.171	110.95952
432.526	110.95927
432.88	110.95965
433.235	110.95815
433.59	110.95855
433.944	110.95844
434.299	110.95945
434.653	110.95958
435.008	110.96081
435.362	110.96084
435.716	110.96268
436.071	110.96167
436.425	110.96209
436.779	110.96121
437.133	110.96211
437.487	110.96145
437.841	110.96251
438.195	110.96293
438.549	110.9635
438.903	110.96317
439.257	110.96376
439.611	110.96365
439.965	110.96282
440.319	110.9637
440.673	110.96337
441.026	110.96332
441.38	110.96352
441.734	110.96352
442.087	110.9629
442.441	110.9633
442.794	110.96161
443.148	110.9611
443.501	110.96114
443.855	110.96084
444.208	110.96013
444.561	110.95965
444.915	110.9602
445.268	110.96026
445.621	110.95952
445.974	110.95969
446.327	110.95903
446.68	110.9587
447.033	110.96033
447.386	110.96018
447.739	110.96077
448.092	110.96154
448.445	110.9611
448.798	110.96114
449.15	110.9624
449.503	110.96158
449.856	110.96198
450.209	110.96253
450.561	110.96158
450.914	110.96271
451.266	110.96345
451.619	110.96268
451.971	110.96249
452.323	110.96213
452.676	110.96044
453.028	110.96205
453.38	110.96051
453.733	110.96013
454.085	110.95932
454.437	110.95987
454.789	110.95991
455.141	110.96147
455.493	110.96112
455.845	110.96216
456.197	110.962
456.549	110.96229
456.901	110.96255
457.253	110.96249
457.604	110.96178
457.956	110.96051
458.308	110.96103
458.659	110.96163
459.011	110.96125
459.362	110.96042
459.714	110.96033
460.065	110.96033
460.417	110.96103
460.768	110.96051
461.12	110.95945
461.471	110.96055
461.822	110.96156
462.173	110.96194
462.525	110.96231
462.876	110.96222
463.227	110.96097
463.578	110.96178
463.929	110.96077
464.28	110.9593
464.631	110.95835
464.982	110.95888
465.332	110.95859
465.683	110.95934
466.034	110.95901
466.385	110.95903
466.735	110.95897
467.086	110.9591
467.437	110.95925
467.787	110.95927
468.138	110.95888
468.488	110.95985
468.839	110.96046
469.189	110.96037
469.539	110.96068
469.89	110.95982
470.24	110.95954
470.59	110.95989
470.94	110.96015
471.29	110.95941
471.64	110.96024
471.99	110.9609
472.34	110.96169
472.69	110.96121
473.04	110.96187
473.39	110.96163
473.74	110.96231
474.09	110.96213
474.439	110.96211
474.789	110.96156
475.139	110.96257
475.488	110.96191
475.838	110.96187
476.188	110.96163
476.537	110.962
476.886	110.96156
477.236	110.96029
477.585	110.96026
477.935	110.95998
478.284	110.95971
478.633	110.95969
478.982	110.95967
479.331	110.95985
479.68	110.96073
480.03	110.96099
480.379	110.96165
480.728	110.96112
481.076	110.96132
481.425	110.96161
481.774	110.96121
482.123	110.96055
482.472	110.96059
482.821	110.96095
483.169	110.9615
483.518	110.96161
483.866	110.96141
484.215	110.9613
484.563	110.96191
484.912	110.96084
485.26	110.96013
485.609	110.96112
485.957	110.96125
486.305	110.96037
486.654	110.9609
487.002	110.96227
487.35	110.96286
487.698	110.96253
488.046	110.96073
488.394	110.96051
488.742	110.96106
489.09	110.96112
489.438	110.96037
489.786	110.96176
490.134	110.96209
490.482	110.96385
490.829	110.96286
491.177	110.96385
491.525	110.96365
491.872	110.96264
492.22	110.96196
492.567	110.96161
492.915	110.96018
493.262	110.96086
493.61	110.95881
493.957	110.95974
494.304	110.9598
494.652	110.96046
494.999	110.9611
495.346	110.96095
495.693	110.96147
496.04	110.9633
496.387	110.96207
496.734	110.96275
497.081	110.96187
497.428	110.96165
497.775	110.96222
498.122	110.96209
498.469	110.96125
498.816	110.96227
499.162	110.96141
499.509	110.96121
499.856	110.96196
500.202	110.96216
500.549	110.962
500.895	110.96178
501.242	110.96128
501.588	110.96187
501.935	110.96134
502.281	110.96097
502.627	110.96086
502.973	110.96007
503.32	110.95945
503.666	110.95927
504.012	110.95899
504.358	110.95879
504.704	110.95723
505.05	110.95741
505.396	110.95905
505.742	110.95985
506.088	110.96029
506.433	110.96055
506.779	110.96106
507.125	110.96152
507.471	110.96073
507.816	110.95985
508.162	110.96086
508.507	110.96134
508.853	110.96183
509.198	110.96143
509.544	110.96315
509.889	110.96389
510.234	110.96341
510.58	110.96288
510.925	110.96246
511.27	110.9624
511.615	110.96273
511.96	110.96103
512.306	110.96075
512.651	110.96042
512.996	110.95958
513.341	110.95908
513.685	110.95829
514.03	110.95927
514.375	110.96123
514.72	110.96165
515.065	110.96279
515.409	110.96295
515.754	110.9624
516.099	110.9635
516.443	110.96231
516.788	110.96103
517.132	110.96002
517.476	110.95923
517.821	110.95985
518.165	110.96002
518.51	110.95877
518.854	110.95949
519.198	110.95947
519.542	110.96066
519.886	110.96088
520.23	110.96026
520.574	110.96042
520.918	110.96099
521.262	110.96084
521.606	110.96042
521.95	110.95945
522.294	110.95938
522.638	110.95932
522.981	110.95932
523.325	110.95919
523.669	110.95985
524.012	110.96026
524.356	110.96029
524.699	110.96103
525.043	110.96073
525.386	110.96121
525.73	110.96715
526.073	110.96581
526.416	110.9657
526.76	110.9666
527.103	110.96654
527.446	110.96881
527.789	110.96883
528.132	110.96374
528.475	110.96559
528.818	110.96566
529.161	110.96464
529.504	110.96337
529.847	110.96174
530.19	110.96147
530.532	110.96042
530.875	110.95789
531.218	110.95778
531.56	110.95802
531.903	110.95958
532.246	110.95919
532.588	110.95886
532.93	110.95967
533.273	110.96108
533.615	110.9611
533.958	110.96143
534.3	110.95996
534.642	110.96172
534.984	110.96202
535.326	110.96114
535.669	110.96163
536.011	110.96178
536.353	110.96169
536.695	110.96295
537.037	110.96255
537.378	110.962
537.72	110.96156
538.062	110.96037
538.404	110.95938
538.746	110.95941
539.087	110.95925
539.429	110.9589
539.77	110.95954
540.112	110.96055
540.454	110.962
540.795	110.96271
541.136	110.96284
541.478	110.96301
541.819	110.9622
542.16	110.96235
542.502	110.96207
542.843	110.96147
543.184	110.96209
543.525	110.96172
543.866	110.96048
544.207	110.96029
544.548	110.96009
544.889	110.95923
545.23	110.95894
545.571	110.95965
545.911	110.95952
546.252	110.96064
546.593	110.96123
546.934	110.96103
547.274	110.96213
547.615	110.96229
547.955	110.96167
548.296	110.96266
548.636	110.96253
548.977	110.96191
549.317	110.96326
549.657	110.9642
549.997	110.96493
550.338	110.964
550.678	110.96345
551.018	110.96249
551.358	110.96334
551.698	110.96275
552.038	110.96161
552.378	110.96084
552.718	110.96251
553.058	110.96297
553.398	110.96449
553.737	110.96392
554.077	110.9642
554.417	110.96409
554.756	110.9646
555.096	110.9631
555.435	110.96326
555.775	110.96187
556.114	110.96207
556.454	110.96084
556.793	110.96132
557.133	110.96125
557.472	110.96097
557.811	110.96051
558.15	110.96112
558.489	110.96079
558.829	110.96156
559.168	110.96112
559.507	110.96086
559.846	110.96191
560.184	110.96185
560.523	110.96196
560.862	110.96306
561.201	110.9635
561.54	110.96411
561.878	110.96398
562.217	110.96343
562.556	110.96301
562.894	110.96478
563.233	110.96478
563.571	110.96475
563.91	110.96416
564.248	110.96414
564.586	110.96431
564.925	110.96478
565.263	110.96176
565.601	110.96068
565.939	110.95985
566.277	110.96007
566.616	110.96046
566.954	110.96022
567.292	110.96108
567.63	110.96405
567.967	110.96478
568.305	110.96456
568.643	110.96378
568.981	110.96328
569.319	110.96372
569.656	110.96321
569.994	110.96165
570.331	110.96073
570.669	110.96097
571.006	110.96158
571.344	110.9609
571.681	110.95982
572.019	110.95927
572.356	110.95993
572.693	110.96103
573.03	110.96119
573.368	110.96073
573.705	110.96132
574.042	110.96218
574.379	110.96136
574.716	110.96015
575.053	110.95943
575.39	110.95899
575.727	110.95905
576.063	110.95901
576.4	110.96007
576.737	110.96055
577.074	110.96081
577.41	110.96143
577.747	110.96174
578.083	110.96121
578.42	110.96079
578.756	110.95989
579.093	110.96108
579.429	110.96128
579.766	110.96077
580.102	110.9615
580.438	110.96198
580.774	110.9624
581.11	110.96216
581.446	110.96154
581.782	110.96062
582.119	110.96062
582.454	110.96018
582.79	110.96029
583.126	110.96068
583.462	110.96123
583.798	110.96009
584.134	110.9602
584.469	110.96051
584.805	110.95998
585.141	110.96095
585.476	110.96099
585.812	110.9604
586.147	110.96099
586.482	110.96187
586.818	110.96112
587.153	110.96244
587.488	110.96167
587.824	110.96121
588.159	110.96095
588.494	110.96112
588.829	110.96055
589.164	110.96158
589.499	110.96095
589.834	110.96037
590.169	110.96
590.504	110.96
590.839	110.95945
591.174	110.95925
591.508	110.95866
591.843	110.95903
592.178	110.96009
592.512	110.95985
592.847	110.95919
593.181	110.95947
593.516	110.95945
593.85	110.95985
594.185	110.95877
594.519	110.95765
594.853	110.95767
595.187	110.95941
595.522	110.9602
595.856	110.96079
596.19	110.96037
596.524	110.9611
596.858	110.962
597.192	110.96279
597.526	110.96169
597.86	110.96185
598.194	110.96244
598.527	110.962
598.861	110.96048
599.195	110.96101
599.528	110.95976
599.862	110.95936
600.196	110.95881
600.529	110.95818
600.863	110.95857
601.196	110.96037
601.529	110.95941
601.863	110.96073
602.196	110.96092
602.529	110.96044
602.862	110.96117
603.196	110.96139
603.529	110.9609
603.862	110.96004
604.195	110.95996
604.528	110.96081
604.861	110.96172
605.193	110.96128
605.526	110.96108
605.859	110.95989
606.192	110.96059
606.524	110.96035
606.857	110.95998
607.19	110.96
607.522	110.95879
607.855	110.95932
608.187	110.95985
608.52	110.96048
608.852	110.96073
609.184	110.96073
609.517	110.96048
609.849	110.96132
610.181	110.96103
610.513	110.96255
610.845	110.9615
611.177	110.96202
611.509	110.96128
611.841	110.96112
612.173	110.96024
612.505	110.96037
612.837	110.95954
613.169	110.95912
613.5	110.95947
613.832	110.96035
614.164	110.96015
614.495	110.96167
614.827	110.96088
615.158	110.96037
615.49	110.96211
615.821	110.96132
616.152	110.96152
616.484	110.96152
616.815	110.96042
617.146	110.96119
617.477	110.96222
617.808	110.962
618.14	110.96161
618.471	110.96
618.802	110.96046
619.133	110.96053
619.463	110.95974
619.794	110.9589
620.125	110.9587
620.456	110.95864
620.787	110.95969
621.117	110.95996
621.448	110.96075
621.778	110.96134
622.109	110.96068
622.439	110.95985
622.77	110.95949
623.1	110.96042
623.43	110.9598
623.761	110.96088
624.091	110.96141
624.421	110.96154
624.751	110.96227
625.081	110.96293
625.412	110.96154
625.742	110.96136
626.072	110.95989
626.401	110.95921
626.731	110.96002
627.061	110.95991
627.391	110.95943
627.721	110.96051
628.05	110.96015
628.38	110.9604
628.71	110.96196
629.039	110.9622
629.369	110.96286
629.698	110.96211
630.028	110.96187
630.357	110.96262
630.686	110.96222
631.015	110.96123
631.345	110.96136
631.674	110.96
632.003	110.96119
632.332	110.96216
632.661	110.96205
632.99	110.96216
633.319	110.96064
633.648	110.95897
633.977	110.95987
634.306	110.95864
634.634	110.95866
634.963	110.95879
635.292	110.95894
635.62	110.96029
635.949	110.96213
636.277	110.9607
636.606	110.96178
636.934	110.95965
637.263	110.95947
637.591	110.95956
637.919	110.96018
638.248	110.95943
638.576	110.96092
638.904	110.96092
639.232	110.962
639.56	110.96231
639.888	110.96233
640.216	110.96209
640.544	110.96145
640.872	110.9609
641.2	110.96125
641.528	110.9618
641.855	110.96139
642.183	110.96136
642.511	110.96319
642.838	110.9642
643.166	110.96341
643.493	110.96235
643.821	110.96165
644.148	110.96079
644.475	110.95945
644.803	110.956
645.13	110.95475
645.457	110.95628
645.784	110.95672
646.112	110.95549
646.439	110.95741
646.766	110.95903
647.093	110.95949
647.42	110.96002
647.746	110.95978
648.073	110.96062
648.4	110.96152
648.727	110.95963
649.053	110.9598
649.38	110.96053
649.707	110.96066
650.033	110.95998
650.36	110.95982
650.686	110.96033
651.013	110.96015
651.339	110.95947
651.665	110.95941
651.992	110.95886
652.318	110.95899
652.644	110.95897
652.97	110.95763
653.296	110.95774
653.622	110.95758
653.948	110.95666
654.274	110.95699
654.6	110.95798
654.926	110.95844
655.252	110.96044
655.578	110.96178
655.903	110.96092
656.229	110.96079
656.555	110.95991
656.88	110.95894
657.206	110.95787
657.531	110.95694
657.857	110.95534
658.182	110.95672
658.507	110.958
658.833	110.95963
659.158	110.9589
659.483	110.95923
659.808	110.95897
660.133	110.95941
660.458	110.95851
660.783	110.95798
661.108	110.95734
661.433	110.95734
661.758	110.9569
662.083	110.95631
662.408	110.95661
662.732	110.95727
663.057	110.95745
663.382	110.95655
663.706	110.95767
664.031	110.95796
664.355	110.95916
664.68	110.95842
665.004	110.95778
665.328	110.95708
665.653	110.95765
665.977	110.95767
666.301	110.95697
666.625	110.95752
666.949	110.95787
667.273	110.95912
667.597	110.95916
667.921	110.95982
668.245	110.96051
668.569	110.96066
668.893	110.95947
669.217	110.9596
669.54	110.9589
669.864	110.95947
670.188	110.95879
670.511	110.95745
670.835	110.95721
671.158	110.95714
671.482	110.95701
671.805	110.95668
672.128	110.95712
672.452	110.95921
672.775	110.95982
673.098	110.96013
673.421	110.96088
673.744	110.96191
674.068	110.96167
674.391	110.96134
674.714	110.96013
675.036	110.96026
675.359	110.96035
675.682	110.96068
676.005	110.96007
676.328	110.96013
676.65	110.95905
676.973	110.95861
677.295	110.9578
677.618	110.9584
677.94	110.95802
678.263	110.95859
678.585	110.95818
678.908	110.95861
679.23	110.95947
679.552	110.95976
679.874	110.95925
680.196	110.95872
680.519	110.95813
680.841	110.95938
681.163	110.95993
681.485	110.9589
681.807	110.95916
682.128	110.95883
682.45	110.95921
682.772	110.95991
683.094	110.9593
683.415	110.96029
683.737	110.96068
684.059	110.96077
684.38	110.96174
684.702	110.9613
685.023	110.96053
685.344	110.96112
685.666	110.96029
685.987	110.95982
686.308	110.95971
686.629	110.95932
686.95	110.95978
687.272	110.95971
687.593	110.95883
687.914	110.95769
688.235	110.95798
688.555	110.95864
688.876	110.95888
689.197	110.95861
689.518	110.95901
689.839	110.96007
690.159	110.95855
690.48	110.95824
690.8	110.95846
691.121	110.95903
691.441	110.9591
691.762	110.9587
692.082	110.95811
692.402	110.96073
692.723	110.96042
693.043	110.96007
693.363	110.96011
693.683	110.95923
694.003	110.9591
694.323	110.95861
694.643	110.95945
694.963	110.9604
695.283	110.95921
695.603	110.95767
695.923	110.9584
696.243	110.95916
696.562	110.95864
696.882	110.95782
697.202	110.95719
697.521	110.95872
697.841	110.96053
698.16	110.96073
698.479	110.95987
698.799	110.96013
699.118	110.95967
699.437	110.96037
699.757	110.95901
700.076	110.95767
700.395	110.95787
700.714	110.95774
701.033	110.95901
701.352	110.95892
701.671	110.95879
701.99	110.95912
702.308	110.96009
702.627	110.95965
702.946	110.96079
703.265	110.96007
703.583	110.96125
703.902	110.96112
704.22	110.96147
704.539	110.96033
704.857	110.95982
705.176	110.95921
705.494	110.95958
705.812	110.95813
706.131	110.95782
706.449	110.95767
706.767	110.95877
707.085	110.96035
707.403	110.96046
707.721	110.96029
708.039	110.9607
708.357	110.9613
708.675	110.96103
708.993	110.96031
709.31	110.95978
709.628	110.95956
709.946	110.96007
710.263	110.96
710.581	110.95943
710.898	110.9596
711.216	110.95936
711.533	110.95945
711.851	110.96
712.168	110.96
712.485	110.96015
712.802	110.9607
713.12	110.96079
713.437	110.96035
713.754	110.95987
714.071	110.95908
714.388	110.95916
714.705	110.95947
715.022	110.95936
715.338	110.95892
715.655	110.95949
715.972	110.95831
716.289	110.95877
716.605	110.95736
716.922	110.95749
717.238	110.95857
717.555	110.95932
717.871	110.95925
718.188	110.96088
718.504	110.96062
718.82	110.9613
719.136	110.95996
719.453	110.95941
719.769	110.95791
720.085	110.95765
720.401	110.95697
720.717	110.95809
721.033	110.95778
721.349	110.95866
721.665	110.95875
721.98	110.96088
722.296	110.96141
722.612	110.96246
722.927	110.96143
723.243	110.9618
723.559	110.96251
723.874	110.96194
724.19	110.95982
724.505	110.96009
724.82	110.95875
725.136	110.95925
725.451	110.95842
725.766	110.95727
726.081	110.95549
726.396	110.95622
726.711	110.95536
727.026	110.95591
727.341	110.95622
727.656	110.95708
727.971	110.95725
728.286	110.95855
728.601	110.95809
728.916	110.95859
729.23	110.95855
729.545	110.9571
729.859	110.9571
730.174	110.95747
730.488	110.95672
730.803	110.95798
731.117	110.95866
731.431	110.9591
731.746	110.96062
732.06	110.96029
732.374	110.96024
732.688	110.96163
733.002	110.96128
733.316	110.9609
733.63	110.96079
733.944	110.96044
734.258	110.96103
734.572	110.96077
734.886	110.95982
735.199	110.9591
735.513	110.95954
735.827	110.95987
736.14	110.95993
736.454	110.96018
736.767	110.95993
737.081	110.95982
737.394	110.96079
737.708	110.95932
738.021	110.95914
738.334	110.95883
738.647	110.95826
738.96	110.95844
739.273	110.95936
739.587	110.95888
739.9	110.95833
740.212	110.95743
740.525	110.95725
740.838	110.95725
741.151	110.95831
741.464	110.95785
741.776	110.9573
742.089	110.95892
742.402	110.95844
742.714	110.95905
743.027	110.95963
743.339	110.95833
743.651	110.95943
743.964	110.96035
744.276	110.9602
744.588	110.96077
744.901	110.96018
745.213	110.95982
745.525	110.95958
745.837	110.9576
746.149	110.95721
746.461	110.95699
746.773	110.95798
747.085	110.95848
747.396	110.95831
747.708	110.95952
748.02	110.96064
748.331	110.96057
748.643	110.96147
748.955	110.96095
749.266	110.96092
749.577	110.96165
749.889	110.96112
750.2	110.9615
750.512	110.96255
750.823	110.96198
751.134	110.96176
751.445	110.96233
751.756	110.96231
752.067	110.96128
752.378	110.96147
752.689	110.96176
753	110.96163
753.311	110.96205
753.622	110.96128
753.932	110.96178
754.243	110.96284
754.554	110.96147
754.864	110.96024
755.175	110.96084
755.485	110.96101
755.796	110.95998
756.106	110.95914
756.417	110.9591
756.727	110.96015
757.037	110.96103
757.347	110.96009
757.658	110.96004
757.968	110.96086
758.278	110.96064
758.588	110.96132
758.898	110.96024
759.208	110.95952
759.517	110.96053
759.827	110.96011
760.137	110.96015
760.447	110.96059
760.756	110.95982
761.066	110.96042
761.375	110.95956
761.685	110.95835
761.994	110.95833
762.304	110.95899
762.613	110.95778
762.922	110.95723
763.232	110.95701
763.541	110.95703
763.85	110.95721
764.159	110.95653
764.468	110.95666
764.777	110.95664
765.086	110.95692
765.395	110.9573
765.704	110.95703
766.013	110.95692
766.321	110.9565
766.63	110.9551
766.939	110.95569
767.247	110.95596
767.556	110.9545
767.864	110.9551
768.173	110.95508
768.481	110.95587
768.789	110.95635
769.098	110.95708
769.406	110.9573
769.714	110.95848
770.022	110.95853
770.33	110.95941
770.638	110.95956
770.946	110.95941
771.254	110.95837
771.562	110.95835
771.87	110.95818
772.178	110.95855
772.486	110.95822
772.793	110.95866
773.101	110.95883
773.408	110.9587
773.716	110.95905
774.023	110.95912
774.331	110.95908
774.638	110.9589
774.946	110.95835
775.253	110.95765
775.56	110.95881
775.867	110.95851
776.174	110.95877
776.481	110.95859
776.788	110.95897
777.095	110.96059
777.402	110.96194
777.709	110.96086
778.016	110.96106
778.323	110.95987
778.63	110.96042
778.936	110.96042
779.243	110.95835
779.549	110.95694
779.856	110.95714
780.162	110.95686
780.469	110.95678
780.775	110.94925
781.082	110.94886
781.388	110.87971
781.694	110.81437
782	110.73244
782.306	110.61212
782.612	110.44327
782.918	110.25803
783.224	110.07579
783.53	109.87753
783.836	109.66959
784.142	109.43474
784.448	109.19482
784.753	108.94987
785.059	108.67915
785.365	108.33357
785.67	108.0954
785.976	107.78696
786.281	107.55717
786.586	107.26795
786.892	107.03638
787.197	106.83167
787.502	106.643
787.808	106.38547
788.113	106.13056
788.418	105.851
788.723	105.61722
789.028	105.437
789.333	105.14977
789.638	104.85072
789.942	104.53619
790.247	104.23214
790.552	103.89212
790.857	103.60947
791.161	103.19095
791.466	102.8505
791.77	102.62833
792.075	102.39594
792.379	102.20496
792.684	101.92044
792.988	101.52678
793.292	101.17694
793.597	100.91485
793.901	100.60476
794.205	100.24772
794.509	99.81063
794.813	99.49364
795.117	99.14468
795.421	98.90802
795.725	98.57607
796.029	98.13725
796.332	97.78393
796.636	97.45711
796.94	97.00144
797.243	96.81981
797.547	96.45647
797.85	96.0623
798.154	95.69985
798.457	95.28475
798.761	94.97164
799.064	94.63996
799.367	94.22202
799.67	93.82214
799.973	93.31568
800.277	92.91942
800.58	92.44318
800.883	91.89948
801.186	91.4806
801.488	90.9312
801.791	90.34632
802.094	89.91543
802.397	89.49382
802.699	89.13463
803.002	88.70987
803.305	88.24889
803.607	87.77003
803.91	87.46665
804.212	86.9126
804.515	86.31244
804.817	85.73229
805.119	85.10117
805.421	84.59454
805.724	84.1657
806.026	83.51321
806.328	83.12833
806.63	82.5032
806.932	81.9267
807.234	81.40793
807.535	80.74092
807.837	80.15026
808.139	79.59999
808.441	78.99103
808.742	78.4209
809.044	77.7975
809.346	77.3528
809.647	76.82059
809.948	76.13741
810.25	75.4216
810.551	74.5921
810.853	73.93518
811.154	73.37262
811.455	72.64521
811.756	71.97479
812.057	71.2839
812.358	70.72471
812.659	70.21974
812.96	69.69159
813.261	69.11727
813.562	68.45523
813.863	67.68199
814.163	66.94574
814.464	66.2714
814.765	65.64448
815.065	65.01696
815.366	64.35327
815.666	63.68696
815.967	63.21122
816.267	62.82919
816.567	62.35908
816.868	61.83469
817.168	61.13571
817.468	60.35792
817.768	59.68809
818.068	58.98398
818.368	58.15674
818.668	57.41949
818.968	56.6279
819.268	55.93798
819.568	55.37959
819.867	54.95239
820.167	54.43929
820.467	54.02499
820.766	53.37934
821.066	52.79282
821.365	52.27861
821.665	51.67546
821.964	50.91407
822.263	50.30998
822.563	49.46795
822.862	48.76518
823.161	48.18029
823.46	47.58465
823.759	46.98381
824.058	46.49929
824.357	45.92705
824.656	45.33175
824.955	44.73514
825.254	44.05828
825.552	43.46899
825.851	42.96491
826.15	42.27047
826.448	41.50544
826.747	40.94222
827.045	40.43115
827.344	39.9872
827.642	39.42269
827.941	38.81549
828.239	38.2396
828.537	37.6756
828.835	37.06927
829.133	36.52819
829.432	35.97692
829.73	35.42219
830.028	34.86373
830.325	34.4348
830.623	34.08738
830.921	33.81739
831.219	33.45608
831.517	33.07774
831.814	32.77196
832.112	32.51291
832.409	32.21243
832.707	31.94649
833.004	31.70725
833.302	31.4673
833.599	31.24093
833.896	30.96897
834.194	30.68307
834.491	30.44176
834.788	30.16712
835.085	29.89828
835.382	29.6434
835.679	29.42509
835.976	29.25377
836.273	29.13607
836.57	28.9785
836.866	28.9383
837.163	28.87128
837.46	28.85369
837.756	28.79876
838.053	28.80069
838.349	28.83114
838.646	28.82074
838.942	28.74406
839.239	28.74287
839.535	28.62771
839.831	28.56875
840.127	28.43369
840.423	28.33558
840.72	28.29
841.016	28.21796
841.312	28.14689
841.607	28.11094
841.903	28.10205
842.199	28.09902
842.495	27.96229
842.791	27.93672
843.086	27.95654
843.382	27.88523
843.677	27.83398
843.973	27.79358
844.268	27.78046
844.564	27.77112
844.859	27.76226
845.154	27.67728
845.45	27.62327
845.745	27.66661
846.04	27.62384
846.335	27.62243
846.63	27.65737
846.925	27.66191
847.22	27.68682
847.515	27.61572
847.81	27.6201
848.104	27.63812
848.399	27.53755
848.694	27.57013
848.988	27.44563
849.283	27.46939
849.578	27.45039
849.872	27.23246
850.166	27.09511
850.461	27.16961
850.755	27.05089
851.049	26.81787
851.343	26.61519
851.638	26.43528
851.932	26.3662
852.226	26.37977
852.52	26.11078
852.814	25.82518
853.107	25.89889
853.401	25.67777
853.695	25.69215
853.989	25.43057
854.282	25.06852
854.576	24.64044
854.869	24.22062
855.163	23.79274
855.456	23.16948
855.75	22.51039
856.043	21.97653
856.336	21.52995
856.63	21.32776
856.923	20.84898
857.216	20.36481
857.509	20.15578
857.802	19.93747
858.095	19.23873
858.388	18.42559
858.681	17.71439
858.974	17.38934
859.266	16.58185
859.559	15.84004
859.852	15.35055
860.144	15.02864
860.437	14.15045
860.729	13.18797
861.022	12.47002
861.314	12.11014
861.606	10.77202
861.899	9.78315
862.191	9.04712
862.483	8.72953
862.775	8.48262
863.067	8.30439
863.359	7.80377
863.651	7.91327
863.943	7.95383
864.235	7.39945
864.527	7.153
864.819	6.80712
865.11	6.36545
865.402	6.09152
865.693	6.04894
865.985	5.25258
866.276	5.2954
866.568	4.85946
866.859	4.77606
867.151	4.5643
867.442	3.51763
867.733	3.38133
868.024	3.92475
868.315	4.24416
868.606	4.93732
868.897	5.22691
869.188	5.25751
869.479	6.30934
869.77	5.87072
870.061	5.57051
870.351	5.00323
870.642	4.66859
870.933	4.9101
871.223	4.90905
871.514	4.77623
871.804	5.26867
872.095	5.24437
872.385	5.71349
872.675	5.71504
