Data from no-cure_1e-5_Relative_16-14-26-508.txt Node
Date: Fri Aug 18 16:14:26 EDT 2023
User: UV-vis
Spectrometer: FLMS04918
Trigger mode: 0
Integration Time (sec): 1.000000E-1
Scans to average: 3
Electric dark correction enabled: true
Nonlinearity correction enabled: false
Boxcar width: 3
XAxis mode: Wavelengths
Number of Pixels in Spectrum: 2048
>>>>>Begin Spectral Data<<<<<
179.23	5.64417
179.611	9.00534
179.992	9.9565
180.373	10.82052
180.754	10.27479
181.134	8.50558
181.515	2.46555
181.896	11.9471
182.276	19.96928
182.657	11.36713
183.038	4.22406
183.418	6.1294
183.799	214.81481
184.179	-51.76695
184.56	-131.91489
184.94	16.25571
185.32	25.26186
185.701	10.79834
186.081	-11.67748
186.461	-46.41555
186.842	0.19179
187.222	0.84007
187.602	0.68468
187.982	0.58852
188.362	0.66961
188.742	0.79191
189.122	0.81589
189.502	0.79133
189.882	0.75393
190.262	0.74645
190.642	0.77296
191.022	0.77
191.402	0.75714
191.781	0.83754
192.161	0.83537
192.541	0.84649
192.92	0.85802
193.3	0.85734
193.68	0.89669
194.059	0.83855
194.439	0.76948
194.818	0.73989
195.198	0.72742
195.577	0.73426
195.957	0.76376
196.336	0.7702
196.715	0.8013
197.094	0.84333
197.474	0.92737
197.853	0.97768
198.232	0.90378
198.611	0.88586
198.99	0.83215
199.369	0.86701
199.748	0.80959
200.127	0.74646
200.506	0.73374
200.885	0.76659
201.264	0.72486
201.643	0.69923
202.022	0.69178
202.401	0.7144
202.779	0.77539
203.158	0.78047
203.537	0.84408
203.915	0.905
204.294	0.92152
204.673	0.9091
205.051	0.85865
205.43	0.86937
205.808	0.86201
206.187	0.79516
206.565	0.81563
206.943	0.82111
207.322	0.7865
207.7	0.83554
208.078	0.76292
208.456	0.8318
208.835	0.89523
209.213	0.8362
209.591	0.83805
209.969	0.8712
210.347	0.83116
210.725	0.84506
211.103	0.77537
211.481	0.73591
211.859	0.72499
212.237	0.7117
212.614	0.67819
212.992	0.74459
213.37	0.71268
213.748	0.69269
214.125	0.73414
214.503	0.69677
214.881	0.74342
215.258	0.77681
215.636	0.74313
216.013	0.79058
216.391	0.77023
216.768	0.75272
217.145	0.76615
217.523	0.74562
217.9	0.73882
218.277	0.75326
218.655	0.78074
219.032	0.88758
219.409	0.84428
219.786	0.90493
220.163	0.90673
220.54	0.92032
220.917	0.87885
221.294	0.86581
221.671	0.7185
222.048	0.70345
222.425	0.66641
222.802	0.6833
223.179	0.69296
223.556	0.65259
223.932	0.6723
224.309	0.72006
224.686	0.71276
225.062	0.76368
225.439	0.69357
225.815	0.65519
226.192	0.71646
226.568	0.68102
226.945	0.70892
227.321	0.72015
227.698	0.6349
228.074	0.665
228.45	0.61854
228.827	0.61176
229.203	0.5951
229.579	0.57434
229.955	0.62457
230.331	0.64175
230.707	0.61467
231.083	0.66118
231.46	0.67422
231.835	0.71967
232.211	0.73563
232.587	0.66499
232.963	0.68784
233.339	0.69304
233.715	0.70527
234.091	0.69075
234.466	0.64914
234.842	0.64665
235.218	0.72583
235.593	0.74269
235.969	0.76118
236.344	0.70015
236.72	0.69783
237.095	0.68876
237.471	0.6874
237.846	0.61249
238.222	0.59035
238.597	0.58317
238.972	0.58348
239.348	0.60642
239.723	0.63307
240.098	0.66436
240.473	0.70903
240.848	0.72297
241.223	0.72625
241.598	0.81884
241.973	0.82958
242.348	0.83636
242.723	0.75053
243.098	0.69383
243.473	0.67167
243.848	0.68064
244.223	0.57227
244.597	0.53128
244.972	0.51656
245.347	0.58873
245.721	0.63715
246.096	0.60006
246.47	0.61531
246.845	0.67615
247.219	0.70368
247.594	0.64395
247.968	0.57261
248.343	0.57448
248.717	0.58564
249.091	0.55439
249.466	0.49991
249.84	0.47159
250.214	0.50664
250.588	0.54185
250.962	0.51504
251.336	0.57401
251.71	0.57215
252.084	0.63602
252.458	0.61523
252.832	0.66315
253.206	0.70928
253.58	0.73246
253.954	0.69707
254.328	0.65236
254.702	0.61682
255.075	0.65683
255.449	0.6063
255.823	0.58286
256.196	0.54377
256.57	0.51911
256.943	0.58828
257.317	0.59738
257.69	0.57282
258.064	0.60821
258.437	0.58243
258.81	0.6673
259.184	0.71521
259.557	0.73152
259.93	0.69147
260.303	0.6932
260.677	0.6427
261.05	0.64678
261.423	0.59881
261.796	0.5916
262.169	0.52861
262.542	0.52136
262.915	0.51831
263.288	0.52727
263.661	0.51486
264.033	0.49991
264.406	0.46857
264.779	0.46794
265.152	0.50149
265.524	0.50084
265.897	0.51112
266.27	0.53962
266.642	0.56034
267.015	0.56891
267.387	0.59194
267.76	0.60097
268.132	0.60011
268.504	0.61687
268.877	0.61484
269.249	0.60146
269.621	0.60731
269.994	0.57724
270.366	0.58619
270.738	0.59523
271.11	0.54964
271.482	0.51544
271.854	0.50635
272.226	0.47657
272.598	0.48326
272.97	0.44859
273.342	0.42746
273.714	0.44651
274.086	0.42756
274.458	0.45081
274.829	0.47893
275.201	0.48855
275.573	0.53207
275.944	0.55208
276.316	0.49434
276.688	0.50758
277.059	0.46264
277.431	0.46625
277.802	0.43883
278.173	0.43772
278.545	0.40187
278.916	0.45315
279.287	0.44598
279.659	0.4442
280.03	0.40837
280.401	0.42676
280.772	0.37606
281.143	0.39301
281.515	0.38081
281.886	0.36169
282.257	0.33443
282.628	0.33592
282.998	0.32259
283.369	0.31898
283.74	0.29346
284.111	0.28762
284.482	0.28643
284.853	0.30636
285.223	0.3151
285.594	0.34777
285.965	0.39311
286.335	0.44482
286.706	0.47977
287.076	0.54714
287.447	0.59769
287.817	0.66368
288.188	0.70729
288.558	0.72619
288.928	0.76757
289.299	0.79952
289.669	0.8166
290.039	0.84262
290.409	0.84674
290.779	0.84372
291.149	0.85479
291.52	0.86528
291.89	0.91145
292.26	0.95122
292.629	1.00601
292.999	1.09714
293.369	1.20902
293.739	1.35685
294.109	1.50863
294.479	1.66661
294.848	1.85414
295.218	2.05545
295.588	2.20533
295.957	2.39249
296.327	2.54641
296.696	2.69629
297.066	2.85287
297.435	2.9665
297.805	3.08812
298.174	3.21826
298.544	3.33063
298.913	3.43089
299.282	3.54398
299.651	3.64675
300.021	3.77756
300.39	3.89682
300.759	4.03504
301.128	4.14827
301.497	4.30389
301.866	4.42422
302.235	4.53633
302.604	4.63016
302.973	4.72434
303.342	4.78553
303.71	4.85239
304.079	4.88083
304.448	4.91275
304.817	4.92816
305.185	4.92659
305.554	4.89148
305.923	4.86953
306.291	4.85992
306.66	4.87451
307.028	4.91348
307.397	4.98435
307.765	5.09461
308.133	5.21818
308.502	5.39118
308.87	5.55193
309.238	5.70424
309.606	5.80652
309.975	5.93615
310.343	6.03118
310.711	6.15594
311.079	6.19612
311.447	6.23849
311.815	6.28119
312.183	6.36454
312.551	6.35015
312.919	6.36903
313.286	6.33722
313.654	6.36414
314.022	6.39077
314.39	6.36968
314.757	6.33094
315.125	6.34952
315.492	6.32375
315.86	6.30448
316.228	6.22592
316.595	6.13418
316.962	6.10048
317.33	6.06651
317.697	6.02646
318.065	6.01139
318.432	6.04369
318.799	6.1476
319.166	6.2647
319.534	6.37815
319.901	6.48381
320.268	6.60355
320.635	6.73527
321.002	6.85028
321.369	6.94639
321.736	7.06225
322.103	7.1734
322.47	7.27901
322.836	7.33032
323.203	7.35703
323.57	7.34445
323.937	7.34294
324.303	7.30714
324.67	7.24805
325.037	7.21283
325.403	7.24264
325.77	7.28434
326.136	7.34333
326.503	7.41026
326.869	7.47929
327.235	7.5889
327.602	7.6749
327.968	7.73906
328.334	7.82343
328.7	7.89779
329.067	7.98304
329.433	8.06286
329.799	8.10714
330.165	8.19411
330.531	8.22448
330.897	8.26586
331.263	8.2937
331.629	8.29688
331.995	8.31001
332.36	8.33496
332.726	8.3341
333.092	8.34372
333.458	8.33491
333.823	8.32989
334.189	8.3239
334.554	8.31835
334.92	8.31402
335.286	8.31675
335.651	8.35308
336.016	8.35597
336.382	8.40144
336.747	8.40981
337.113	8.42936
337.478	8.45743
337.843	8.45067
338.208	8.44222
338.573	8.46351
338.939	8.4693
339.304	8.49603
339.669	8.50921
340.034	8.5421
340.399	8.55057
340.764	8.57653
341.129	8.59047
341.493	8.57894
341.858	8.57421
342.223	8.55694
342.588	8.51974
342.952	8.51004
343.317	8.49263
343.682	8.46763
344.046	8.44385
344.411	8.4044
344.775	8.39124
345.14	8.34319
345.504	8.29601
345.869	8.26949
346.233	8.2486
346.597	8.24231
346.962	8.2168
347.326	8.19576
347.69	8.19933
348.054	8.22765
348.418	8.23249
348.782	8.26826
349.146	8.29651
349.51	8.36472
349.874	8.39275
350.238	8.44658
350.602	8.50497
350.966	8.56852
351.33	8.61426
351.693	8.69026
352.057	8.73844
352.421	8.80179
352.784	8.83655
353.148	8.87595
353.512	8.88835
353.875	8.89699
354.239	8.88153
354.602	8.90518
354.966	8.94848
355.329	8.94447
355.692	8.93937
356.056	8.92973
356.419	8.906
356.782	8.86806
357.145	8.83577
357.508	8.78838
357.871	8.75575
358.234	8.7309
358.597	8.70802
358.96	8.68709
359.323	8.68966
359.686	8.66035
360.049	8.61523
360.412	8.59882
360.775	8.55066
361.137	8.53662
361.5	8.52809
361.863	8.47849
362.225	8.44913
362.588	8.43055
362.951	8.42947
363.313	8.46374
363.675	8.48279
364.038	8.53806
364.4	8.61996
364.763	8.68814
365.125	8.77134
365.487	8.84383
365.849	8.90338
366.212	8.98687
366.574	9.00003
366.936	9.0552
367.298	9.08315
367.66	9.0881
368.022	9.08282
368.384	9.05197
368.746	8.9939
369.108	8.97033
369.469	8.88961
369.831	8.82934
370.193	8.79743
370.555	8.76581
370.916	8.7683
371.278	8.76006
371.64	8.79313
372.001	8.83709
372.363	8.89536
372.724	8.92456
373.086	8.98328
373.447	9.04344
373.808	9.14876
374.17	9.22856
374.531	9.29448
374.892	9.32799
375.253	9.40596
375.615	9.44718
375.976	9.4752
376.337	9.46802
376.698	9.45604
377.059	9.4866
377.42	9.54301
377.781	9.58653
378.141	9.63522
378.502	9.66808
378.863	9.68897
379.224	9.68436
379.585	9.67237
379.945	9.64219
380.306	9.57551
380.666	9.50977
381.027	9.46998
381.388	9.45329
381.748	9.4335
382.108	9.41217
382.469	9.40803
382.829	9.41115
383.19	9.41224
383.55	9.37986
383.91	9.36882
384.27	9.37971
384.63	9.40964
384.991	9.40275
385.351	9.45861
385.711	9.53226
386.071	9.61088
386.431	9.70292
386.791	9.82378
387.15	9.93272
387.51	10.05822
387.87	10.1668
388.23	10.21533
388.589	10.28715
388.949	10.31613
389.309	10.33272
389.668	10.31449
390.028	10.31034
390.387	10.31575
390.747	10.39677
391.106	10.47977
391.466	10.65574
391.825	10.75353
392.184	10.85523
392.544	10.93853
392.903	10.95555
393.262	10.90738
393.621	10.80704
393.98	10.62168
394.339	10.4529
394.698	10.28119
395.057	10.11484
395.416	9.94192
395.775	9.85532
396.134	9.80819
396.493	9.77139
396.852	9.78147
397.211	9.84334
397.569	9.90301
397.928	9.97087
398.287	9.9682
398.645	9.90469
399.004	9.83023
399.362	9.70013
399.721	9.53527
400.079	9.37695
400.438	9.20265
400.796	9.03775
401.154	8.96993
401.512	8.86926
401.871	8.80662
402.229	8.74674
402.587	8.73005
402.945	8.78159
403.303	8.85334
403.661	8.92212
404.019	9.05011
404.377	9.22316
404.735	9.3655
405.093	9.48454
405.451	9.50886
405.808	9.5401
406.166	9.5377
406.524	9.51616
406.882	9.48139
407.239	9.5373
407.597	9.58059
407.954	9.66435
408.312	9.76436
408.669	9.8719
409.027	9.93695
409.384	9.99612
409.741	9.99307
410.099	10.03053
410.456	10.0519
410.813	10.08148
411.17	10.09932
411.527	10.17548
411.884	10.2103
412.242	10.2547
412.599	10.26484
412.956	10.30749
413.312	10.28094
413.669	10.24392
414.026	10.14841
414.383	10.0828
414.74	10.00569
415.096	9.89798
415.453	9.79051
415.81	9.69444
416.166	9.59134
416.523	9.49236
416.879	9.37063
417.236	9.25326
417.592	9.14279
417.949	9.06154
418.305	8.95543
418.661	8.84769
419.018	8.78131
419.374	8.7386
419.73	8.69409
420.086	8.72648
420.442	8.71872
420.798	8.69911
421.154	8.6856
421.51	8.58597
421.866	8.4465
422.222	8.28375
422.578	8.0132
422.934	7.68697
423.29	7.34049
423.646	7.00989
424.001	6.68269
424.357	6.34502
424.713	5.97307
425.068	5.6343
425.424	5.32773
425.779	5.06562
426.135	4.78912
426.49	4.56027
426.845	4.34673
427.201	4.17529
427.556	4.01458
427.911	3.88819
428.266	3.79862
428.622	3.74718
428.977	3.72793
429.332	3.719
429.687	3.71551
430.042	3.69924
430.397	3.70863
430.752	3.67959
431.107	3.63179
431.461	3.57841
431.816	3.54392
432.171	3.53561
432.526	3.57125
432.88	3.62876
433.235	3.6997
433.59	3.75019
433.944	3.80554
434.299	3.84642
434.653	3.89663
435.008	3.93059
435.362	3.9328
435.716	3.91841
436.071	3.94153
436.425	3.94349
436.779	3.93334
437.133	3.89091
437.487	3.8415
437.841	3.77182
438.195	3.7276
438.549	3.65252
438.903	3.56288
439.257	3.50426
439.611	3.45986
439.965	3.42005
440.319	3.36131
440.673	3.31885
441.026	3.2807
441.38	3.26891
441.734	3.24041
442.087	3.22096
442.441	3.20521
442.794	3.18485
443.148	3.17246
443.501	3.17307
443.855	3.18141
444.208	3.2069
444.561	3.21278
444.915	3.19447
445.268	3.24828
445.621	3.28899
445.974	3.31954
446.327	3.3663
446.68	3.40091
447.033	3.45761
447.386	3.54867
447.739	3.5912
448.092	3.64986
448.445	3.72558
448.798	3.77637
449.15	3.82839
449.503	3.87567
449.856	3.89869
450.209	3.9298
450.561	3.96097
450.914	3.96679
451.266	3.98072
451.619	4.00753
451.971	4.02171
452.323	4.04908
452.676	4.07655
453.028	4.08397
453.38	4.09785
453.733	4.10212
454.085	4.09219
454.437	4.08336
454.789	4.06813
455.141	4.0667
455.493	4.05172
455.845	4.05632
456.197	4.05385
456.549	4.07483
456.901	4.06851
457.253	4.05584
457.604	4.03932
457.956	4.03503
458.308	4.03483
458.659	4.03324
459.011	4.01263
459.362	4.01875
459.714	4.03477
460.065	4.03738
460.417	4.06072
460.768	4.0535
461.12	4.06535
461.471	4.07539
461.822	4.07817
462.173	4.06848
462.525	4.07424
462.876	4.06296
463.227	4.07394
463.578	4.07083
463.929	4.06965
464.28	4.07994
464.631	4.0842
464.982	4.08861
465.332	4.11319
465.683	4.0924
466.034	4.10813
466.385	4.12057
466.735	4.12717
467.086	4.16535
467.437	4.16119
467.787	4.17304
468.138	4.21563
468.488	4.21901
468.839	4.24453
469.189	4.24871
469.539	4.25786
469.89	4.2788
470.24	4.27668
470.59	4.28485
470.94	4.2994
471.29	4.31616
471.64	4.34459
471.99	4.35147
472.34	4.37146
472.69	4.42043
473.04	4.43937
473.39	4.46295
473.74	4.49213
474.09	4.51996
474.439	4.56009
474.789	4.60583
475.139	4.61007
475.488	4.64431
475.838	4.68182
476.188	4.69376
476.537	4.73306
476.886	4.75054
477.236	4.80256
477.585	4.83185
477.935	4.89775
478.284	4.9492
478.633	5.0114
478.982	5.0734
479.331	5.1393
479.68	5.18607
480.03	5.25824
480.379	5.30773
480.728	5.35846
481.076	5.41957
481.425	5.45804
481.774	5.51605
482.123	5.55666
482.472	5.60344
482.821	5.66302
483.169	5.70826
483.518	5.76171
483.866	5.84048
484.215	5.92532
484.563	6.0234
484.912	6.11994
485.26	6.15828
485.609	6.2361
485.957	6.29378
486.305	6.32458
486.654	6.34295
487.002	6.34956
487.35	6.34448
487.698	6.38363
488.046	6.40084
488.394	6.39851
488.742	6.41669
489.09	6.45165
489.438	6.46887
489.786	6.48815
490.134	6.49277
490.482	6.47574
490.829	6.51249
491.177	6.50886
491.525	6.51698
491.872	6.53103
492.22	6.55009
492.567	6.57055
492.915	6.6287
493.262	6.63071
493.61	6.6662
493.957	6.63204
494.304	6.64954
494.652	6.64191
494.999	6.64049
495.346	6.61632
495.693	6.607
496.04	6.59566
496.387	6.61077
496.734	6.60135
497.081	6.63193
497.428	6.64283
497.775	6.66526
498.122	6.68927
498.469	6.69919
498.816	6.72691
499.162	6.74866
499.509	6.75556
499.856	6.75642
500.202	6.76217
500.549	6.77712
500.895	6.80489
501.242	6.82545
501.588	6.86014
501.935	6.89613
502.281	6.95189
502.627	6.97992
502.973	7.02938
503.32	7.08999
503.666	7.14987
504.012	7.19002
504.358	7.23745
504.704	7.28838
505.05	7.34387
505.396	7.37487
505.742	7.42577
506.088	7.45878
506.433	7.50412
506.779	7.53196
507.125	7.58787
507.471	7.63489
507.816	7.67983
508.162	7.69659
508.507	7.72924
508.853	7.77775
509.198	7.87742
509.544	7.90636
509.889	7.9609
510.234	8.03382
510.58	8.1085
510.925	8.20233
511.27	8.24744
511.615	8.28101
511.96	8.38189
512.306	8.46636
512.651	8.53173
512.996	8.60813
513.341	8.65389
513.685	8.7281
514.03	8.77665
514.375	8.79307
514.72	8.84719
515.065	8.90994
515.409	8.99518
515.754	9.09047
516.099	9.18131
516.443	9.29694
516.788	9.41828
517.132	9.51955
517.476	9.59532
517.821	9.61653
518.165	9.68451
518.51	9.74641
518.854	9.78518
519.198	9.84375
519.542	9.90743
519.886	9.97446
520.23	10.07003
520.574	10.14743
520.918	10.21419
521.262	10.2871
521.606	10.33608
521.95	10.41463
522.294	10.49744
522.638	10.57042
522.981	10.62099
523.325	10.70815
523.669	10.73608
524.012	10.78847
524.356	10.83926
524.699	10.8968
525.043	10.97356
525.386	11.01519
525.73	11.08642
526.073	11.20011
526.416	11.27128
526.76	11.32762
527.103	11.37695
527.446	11.38473
527.789	11.44882
528.132	11.43889
528.475	11.45347
528.818	11.47743
529.161	11.49183
529.504	11.53827
529.847	11.59215
530.19	11.60191
530.532	11.62246
530.875	11.62981
531.218	11.65177
531.56	11.65624
531.903	11.60813
532.246	11.59106
532.588	11.6178
532.93	11.61665
533.273	11.62015
533.615	11.63964
533.958	11.61992
534.3	11.64906
534.642	11.65073
534.984	11.62216
535.326	11.65795
535.669	11.66549
536.011	11.65281
536.353	11.68122
536.695	11.6665
537.037	11.65664
537.378	11.65325
537.72	11.60601
538.062	11.60195
538.404	11.57461
538.746	11.55979
539.087	11.52531
539.429	11.51049
539.77	11.51417
540.112	11.50038
540.454	11.46739
540.795	11.45628
541.136	11.43193
541.478	11.44897
541.819	11.42062
542.16	11.40031
542.502	11.39118
542.843	11.37933
543.184	11.38197
543.525	11.3868
543.866	11.38251
544.207	11.38853
544.548	11.40658
544.889	11.46188
545.23	11.45576
545.571	11.46833
545.911	11.47
546.252	11.48502
546.593	11.49267
546.934	11.49668
547.274	11.47676
547.615	11.5012
547.955	11.52504
548.296	11.53612
548.636	11.52354
548.977	11.57467
549.317	11.59215
549.657	11.61363
549.997	11.67342
550.338	11.6883
550.678	11.72143
551.018	11.79146
551.358	11.84999
551.698	11.90816
552.038	11.97335
552.378	12.01606
552.718	12.05121
553.058	12.0995
553.398	12.1612
553.737	12.21717
554.077	12.25202
554.417	12.29366
554.756	12.33919
555.096	12.4158
555.435	12.49044
555.775	12.57015
556.114	12.62317
556.454	12.70684
556.793	12.78527
557.133	12.85584
557.472	12.96027
557.811	13.04943
558.15	13.11358
558.489	13.20952
558.829	13.27347
559.168	13.34459
559.507	13.40708
559.846	13.49147
560.184	13.5799
560.523	13.63603
560.862	13.66872
561.201	13.74796
561.54	13.83104
561.878	13.9455
562.217	14.00944
562.556	14.0916
562.894	14.17919
563.233	14.2862
563.571	14.41245
563.91	14.51465
564.248	14.60637
564.586	14.69474
564.925	14.7853
565.263	14.89905
565.601	14.98869
565.939	15.04133
566.277	15.10405
566.616	15.17182
566.954	15.23028
567.292	15.31135
567.63	15.36087
567.967	15.43818
568.305	15.49047
568.643	15.59437
568.981	15.68017
569.319	15.75126
569.656	15.80834
569.994	15.94016
570.331	16.02993
570.669	16.16214
571.006	16.2331
571.344	16.28467
571.681	16.38822
572.019	16.48051
572.356	16.49615
572.693	16.54155
573.03	16.57851
573.368	16.64645
573.705	16.7453
574.042	16.77129
574.379	16.80477
574.716	16.90907
575.053	16.98882
575.39	17.05737
575.727	17.10402
576.063	17.14389
576.4	17.2244
576.737	17.30042
577.074	17.32271
577.41	17.36844
577.747	17.39402
578.083	17.42108
578.42	17.45072
578.756	17.48099
579.093	17.48509
579.429	17.50769
579.766	17.54722
580.102	17.59575
580.438	17.65774
580.774	17.69836
581.11	17.69756
581.446	17.74795
581.782	17.78157
582.119	17.81268
582.454	17.82802
582.79	17.83141
583.126	17.8463
583.462	17.91704
583.798	17.93042
584.134	17.92759
584.469	17.9
584.805	17.91278
585.141	17.93203
585.476	17.96782
585.812	17.96043
586.147	18.00455
586.482	18.0064
586.818	18.03688
587.153	18.02279
587.488	17.99122
587.824	17.95233
588.159	17.94026
588.494	17.95218
588.829	18.00604
589.164	17.98646
589.499	18.01411
589.834	18.03083
590.169	18.08259
590.504	18.13076
590.839	18.10256
591.174	18.06691
591.508	18.11529
591.843	18.14922
592.178	18.18669
592.512	18.20214
592.847	18.16412
593.181	18.15216
593.516	18.14068
593.85	18.12087
594.185	18.06652
594.519	18.06346
594.853	18.01956
595.187	18.03285
595.522	18.0187
595.856	18.05159
596.19	18.02782
596.524	18.06353
596.858	18.058
597.192	18.02939
597.526	18.01614
597.86	18.03787
598.194	18.03443
598.527	18.0588
598.861	18.07878
599.195	18.05757
599.528	18.12775
599.862	18.11886
600.196	18.12959
600.529	18.15542
600.863	18.1613
601.196	18.16388
601.529	18.22168
601.863	18.21163
602.196	18.26554
602.529	18.27718
602.862	18.26414
603.196	18.29261
603.529	18.2647
603.862	18.23739
604.195	18.2561
604.528	18.27479
604.861	18.23796
605.193	18.26372
605.526	18.27363
605.859	18.3459
606.192	18.37658
606.524	18.37216
606.857	18.32999
607.19	18.39163
607.522	18.39322
607.855	18.43584
608.187	18.3972
608.52	18.4071
608.852	18.42516
609.184	18.4647
609.517	18.47734
609.849	18.51447
610.181	18.49432
610.513	18.52478
610.845	18.56936
611.177	18.58832
611.509	18.62719
611.841	18.68493
612.173	18.70871
612.505	18.76312
612.837	18.79521
613.169	18.7991
613.5	18.83563
613.832	18.87547
614.164	18.86931
614.495	18.951
614.827	18.94642
615.158	19.01879
615.49	19.04349
615.821	19.09429
616.152	19.142
616.484	19.1693
616.815	19.17601
617.146	19.22191
617.477	19.23717
617.808	19.28375
618.14	19.29249
618.471	19.34144
618.802	19.42473
619.133	19.43729
619.463	19.48525
619.794	19.49701
620.125	19.54481
620.456	19.61513
620.787	19.60558
621.117	19.62531
621.448	19.62432
621.778	19.63562
622.109	19.69886
622.439	19.77522
622.77	19.79345
623.1	19.8184
623.43	19.86926
623.761	19.89449
624.091	19.92616
624.421	19.96694
624.751	19.94478
625.081	19.99757
625.412	20.08234
625.742	20.1047
626.072	20.18207
626.401	20.25967
626.731	20.31054
627.061	20.37636
627.391	20.47459
627.721	20.52497
628.05	20.6092
628.38	20.69354
628.71	20.77456
629.039	20.82681
629.369	20.91016
629.698	20.99665
630.028	21.07787
630.357	21.1333
630.686	21.2058
631.015	21.24322
631.345	21.33319
631.674	21.43389
632.003	21.45528
632.332	21.5487
632.661	21.6101
632.99	21.67816
633.319	21.74098
633.648	21.80228
633.977	21.8408
634.306	21.90576
634.634	21.92527
634.963	21.98713
635.292	22.04082
635.62	22.11977
635.949	22.1508
636.277	22.17902
636.606	22.24041
636.934	22.27561
637.263	22.32161
637.591	22.36593
637.919	22.3702
638.248	22.39055
638.576	22.41648
638.904	22.37032
639.232	22.37232
639.56	22.33461
639.888	22.34188
640.216	22.32192
640.544	22.33467
640.872	22.31408
641.2	22.29734
641.528	22.27277
641.855	22.29219
642.183	22.25361
642.511	22.27257
642.838	22.25034
643.166	22.26017
643.493	22.25462
643.821	22.24094
644.148	22.23419
644.475	22.2423
644.803	22.24352
645.13	22.22092
645.457	22.18311
645.784	22.18962
646.112	22.15925
646.439	22.09089
646.766	22.00728
647.093	21.94279
647.42	21.91335
647.746	21.86209
648.073	21.78569
648.4	21.72567
648.727	21.67657
649.053	21.66086
649.38	21.63239
649.707	21.56924
650.033	21.54743
650.36	21.48993
650.686	21.52765
651.013	21.51406
651.339	21.49667
651.665	21.44497
651.992	21.44991
652.318	21.40903
652.644	21.39495
652.97	21.38049
653.296	21.35643
653.622	21.33687
653.948	21.32283
654.274	21.32769
654.6	21.40706
654.926	21.53878
655.252	21.59991
655.578	21.63828
655.903	21.67653
656.229	21.69252
656.555	21.61593
656.88	21.54379
657.206	21.392
657.531	21.23692
657.857	21.16501
658.182	21.09265
658.507	21.062
658.833	21.03784
659.158	20.961
659.483	20.9542
659.808	20.90534
660.133	20.88511
660.458	20.86533
660.783	20.81256
661.108	20.81777
661.433	20.82018
661.758	20.80209
662.083	20.80879
662.408	20.76724
662.732	20.71713
663.057	20.73131
663.382	20.71957
663.706	20.71387
664.031	20.711
664.355	20.6862
664.68	20.69983
665.004	20.72411
665.328	20.71435
665.653	20.68955
665.977	20.6593
666.301	20.64834
666.625	20.64617
666.949	20.64703
667.273	20.57093
667.597	20.55396
667.921	20.53734
668.245	20.5043
668.569	20.47087
668.893	20.48069
669.217	20.47351
669.54	20.51193
669.864	20.45882
670.188	20.43748
670.511	20.44662
670.835	20.46964
671.158	20.45587
671.482	20.41249
671.805	20.40305
672.128	20.43557
672.452	20.37104
672.775	20.35653
673.098	20.31496
673.421	20.28584
673.744	20.29438
674.068	20.28109
674.391	20.27746
674.714	20.3276
675.036	20.32062
675.359	20.30674
675.682	20.30554
676.005	20.28253
676.328	20.23088
676.65	20.21685
676.973	20.26018
677.295	20.24764
677.618	20.25395
677.94	20.2647
678.263	20.30187
678.585	20.36671
678.908	20.36331
679.23	20.29708
679.552	20.29841
679.874	20.31313
680.196	20.29449
680.519	20.27714
680.841	20.22027
681.163	20.20442
681.485	20.20232
681.807	20.20722
682.128	20.20059
682.45	20.22676
682.772	20.17829
683.094	20.19061
683.415	20.17035
683.737	20.19496
684.059	20.20335
684.38	20.1644
684.702	20.1391
685.023	20.14391
685.344	20.14841
685.666	20.12982
685.987	20.1374
686.308	20.12676
686.629	20.13265
686.95	20.13772
687.272	20.14161
687.593	20.143
687.914	20.2053
688.235	20.18617
688.555	20.12197
688.876	20.10295
689.197	20.09284
689.518	20.09717
689.839	20.03971
690.159	19.99821
690.48	19.98501
690.8	20.00367
691.121	20.01675
691.441	19.99099
691.762	19.9712
692.082	20.00383
692.402	19.96285
692.723	19.94964
693.043	19.94037
693.363	19.93584
693.683	19.96594
694.003	19.95346
694.323	19.96743
694.643	19.97297
694.963	19.96626
695.283	19.99981
695.603	19.97634
695.923	19.93553
696.243	19.93171
696.562	19.91951
696.882	19.92827
697.202	19.93132
697.521	19.88416
697.841	19.85311
698.16	19.84243
698.479	19.80075
698.799	19.75988
699.118	19.72012
699.437	19.66379
699.757	19.6485
700.076	19.63185
700.395	19.62759
700.714	19.63117
701.033	19.57406
701.352	19.55444
701.671	19.56062
701.99	19.54696
702.308	19.54147
702.627	19.50757
702.946	19.49034
703.265	19.49908
703.583	19.45042
703.902	19.45239
704.22	19.39622
704.539	19.35225
704.857	19.34614
705.176	19.33984
705.494	19.32224
705.812	19.36482
706.131	19.31914
706.449	19.35478
706.767	19.34468
707.085	19.29951
707.403	19.21783
707.721	19.15711
708.039	19.07496
708.357	19.03104
708.675	18.9497
708.993	18.89325
709.31	18.85361
709.628	18.8422
709.946	18.82521
710.263	18.80744
710.581	18.76873
710.898	18.72829
711.216	18.70922
711.533	18.61345
711.851	18.57726
712.168	18.53331
712.485	18.47337
712.802	18.39382
713.12	18.3737
713.437	18.28426
713.754	18.24111
714.071	18.17036
714.388	18.11412
714.705	18.0438
715.022	17.99104
715.338	17.93012
715.655	17.92022
715.972	17.90825
716.289	17.8462
716.605	17.82184
716.922	17.77551
717.238	17.74174
717.555	17.65165
717.871	17.57569
718.188	17.49662
718.504	17.43438
718.82	17.358
719.136	17.3326
719.453	17.2631
719.769	17.21781
720.085	17.14236
720.401	17.07508
720.717	17.02908
721.033	16.95336
721.349	16.86503
721.665	16.7825
721.98	16.69585
722.296	16.63825
722.612	16.55937
722.927	16.49198
723.243	16.41888
723.559	16.34446
723.874	16.24727
724.19	16.2325
724.505	16.15202
724.82	16.09586
725.136	16.02437
725.451	15.93065
725.766	15.87482
726.081	15.81306
726.396	15.71059
726.711	15.63715
727.026	15.55248
727.341	15.46184
727.656	15.40407
727.971	15.32106
728.286	15.27853
728.601	15.19321
728.916	15.1283
729.23	15.0857
729.545	15.02572
729.859	14.96554
730.174	14.87015
730.488	14.79791
730.803	14.74142
731.117	14.6683
731.431	14.58521
731.746	14.52622
732.06	14.46397
732.374	14.41254
732.688	14.34733
733.002	14.30412
733.316	14.31346
733.63	14.30449
733.944	14.28456
734.258	14.26406
734.572	14.26854
734.886	14.29038
735.199	14.24469
735.513	14.18948
735.827	14.20275
736.14	14.17373
736.454	14.15298
736.767	14.13801
737.081	14.09091
737.394	14.08052
737.708	14.11314
738.021	14.03044
738.334	14.05372
738.647	14.055
738.96	14.03857
739.273	14.02631
739.587	14.01686
739.9	13.9678
740.212	13.96605
740.525	13.89079
740.838	13.82378
741.151	13.78679
741.464	13.7513
741.776	13.73777
742.089	13.66456
742.402	13.65513
742.714	13.63965
743.027	13.6524
743.339	13.63252
743.651	13.59115
743.964	13.5351
744.276	13.54354
744.588	13.47541
744.901	13.43916
745.213	13.37852
745.525	13.3393
745.837	13.33208
746.149	13.30852
746.461	13.27214
746.773	13.23201
747.085	13.21095
747.396	13.16419
747.708	13.08317
748.02	13.00142
748.331	12.93753
748.643	12.87998
748.955	12.82437
749.266	12.76133
749.577	12.70337
749.889	12.67767
750.2	12.63616
750.512	12.57756
750.823	12.53656
751.134	12.48653
751.445	12.4085
751.756	12.35348
752.067	12.35171
752.378	12.3144
752.689	12.26194
753	12.16445
753.311	12.12397
753.622	12.07776
753.932	12.00907
754.243	11.90665
754.554	11.86603
754.864	11.84624
755.175	11.80634
755.485	11.73488
755.796	11.69404
756.106	11.66786
756.417	11.62869
756.727	11.55937
757.037	11.46416
757.347	11.40478
757.658	11.35777
757.968	11.29941
758.278	11.2454
758.588	11.1584
758.898	11.10653
759.208	11.0482
759.517	10.97476
759.827	10.91535
760.137	10.82488
760.447	10.77214
760.756	10.74449
761.066	10.67483
761.375	10.65734
761.685	10.65436
761.994	10.59455
762.304	10.57151
762.613	10.51737
762.922	10.46067
763.232	10.40027
763.541	10.33188
763.85	10.22592
764.159	10.19599
764.468	10.16381
764.777	10.13731
765.086	10.10247
765.395	10.08014
765.704	10.06907
766.013	10.05031
766.321	10.00619
766.63	9.97061
766.939	9.92381
767.247	9.86547
767.556	9.81923
767.864	9.75377
768.173	9.7369
768.481	9.67682
768.789	9.61747
769.098	9.54207
769.406	9.4895
769.714	9.43274
770.022	9.38623
770.33	9.3314
770.638	9.30805
770.946	9.2738
771.254	9.25166
771.562	9.22135
771.87	9.20655
772.178	9.17637
772.486	9.13917
772.793	9.10262
773.101	9.0516
773.408	9.00353
773.716	8.94984
774.023	8.87365
774.331	8.82204
774.638	8.78759
774.946	8.70689
775.253	8.68847
775.56	8.63863
775.867	8.59043
776.174	8.5485
776.481	8.49459
776.788	8.45134
777.095	8.46905
777.402	8.41088
777.709	8.37232
778.016	8.33655
778.323	8.33163
778.63	8.30335
778.936	8.2608
779.243	8.19925
779.549	8.16951
779.856	8.14819
780.162	8.12892
780.469	8.08647
780.775	8.07156
781.082	8.02794
781.388	7.99001
781.694	7.93448
782	7.90163
782.306	7.85537
782.612	7.83486
782.918	7.77766
783.224	7.74833
783.53	7.72272
783.836	7.6896
784.142	7.61438
784.448	7.59893
784.753	7.54136
785.059	7.50835
785.365	7.44812
785.67	7.38806
785.976	7.33733
786.281	7.33117
786.586	7.2573
786.892	7.21499
787.197	7.19432
787.502	7.17519
787.808	7.16841
788.113	7.14287
788.418	7.0847
788.723	7.07647
789.028	7.0506
789.333	6.98833
789.638	6.92293
789.942	6.84319
790.247	6.80874
790.552	6.79063
790.857	6.72788
791.161	6.68674
791.466	6.6623
791.77	6.6539
792.075	6.63699
792.379	6.61373
792.684	6.57314
792.988	6.54543
793.292	6.51482
793.597	6.47181
793.901	6.4307
794.205	6.39306
794.509	6.34967
794.813	6.34454
795.117	6.32221
795.421	6.26276
795.725	6.23023
796.029	6.20876
796.332	6.17749
796.636	6.1602
796.94	6.09522
797.243	6.06921
797.547	6.04202
797.85	6.01424
798.154	5.96677
798.457	5.94249
798.761	5.90069
799.064	5.86599
799.367	5.82304
799.67	5.79794
799.973	5.73215
800.277	5.69983
800.58	5.66957
800.883	5.62522
801.186	5.59014
801.488	5.56199
801.791	5.52931
802.094	5.524
802.397	5.50006
802.699	5.47179
803.002	5.4177
803.305	5.38556
803.607	5.33153
803.91	5.30661
804.212	5.26377
804.515	5.20974
804.817	5.14761
805.119	5.14648
805.421	5.11328
805.724	5.08356
806.026	5.03229
806.328	4.99189
806.63	4.95833
806.932	4.93475
807.234	4.90694
807.535	4.85888
807.837	4.8488
808.139	4.82381
808.441	4.78629
808.742	4.74502
809.044	4.684
809.346	4.61612
809.647	4.59737
809.948	4.535
810.25	4.47957
810.551	4.43935
810.853	4.41286
811.154	4.39956
811.455	4.36677
811.756	4.30366
812.057	4.25279
812.358	4.22422
812.659	4.2137
812.96	4.16947
813.261	4.12817
813.562	4.10698
813.863	4.08554
814.163	4.05167
814.464	4.03696
814.765	4.00254
815.065	3.98151
815.366	3.94756
815.666	3.91048
815.967	3.89015
816.267	3.88179
816.567	3.84867
816.868	3.8138
817.168	3.77026
817.468	3.73501
817.768	3.68763
818.068	3.65129
818.368	3.60132
818.668	3.55316
818.968	3.50601
819.268	3.46849
819.568	3.42079
819.867	3.38155
820.167	3.33307
820.467	3.3043
820.766	3.24979
821.066	3.19595
821.365	3.15274
821.665	3.13269
821.964	3.10293
822.263	3.07107
822.563	3.03026
822.862	3.01271
823.161	3.00639
823.46	2.99437
823.759	2.96321
824.058	2.92273
824.357	2.89443
824.656	2.87008
824.955	2.8318
825.254	2.79562
825.552	2.75125
825.851	2.71928
826.15	2.70565
826.448	2.68406
826.747	2.62639
827.045	2.59479
827.344	2.56234
827.642	2.5423
827.941	2.49496
828.239	2.4542
828.537	2.41758
828.835	2.403
829.133	2.37409
829.432	2.34302
829.73	2.31023
830.028	2.28851
830.325	2.2614
830.623	2.24087
830.921	2.2187
831.219	2.20774
831.517	2.18464
831.814	2.16087
832.112	2.15813
832.409	2.15609
832.707	2.14921
833.004	2.15485
833.302	2.14775
833.599	2.14485
833.896	2.13262
834.194	2.13118
834.491	2.11256
834.788	2.09429
835.085	2.07521
835.382	2.04624
835.679	2.01978
835.976	2.02924
836.273	2.0023
836.57	1.98737
836.866	1.98979
837.163	1.97596
837.46	1.99908
837.756	2.02424
838.053	2.05022
838.349	2.0901
838.646	2.09344
838.942	2.11627
839.239	2.14444
839.535	2.1456
839.831	2.13886
840.127	2.08576
840.423	2.08905
840.72	2.12595
841.016	2.09846
841.312	2.09244
841.607	2.08702
841.903	2.11587
842.199	2.1569
842.495	2.14457
842.791	2.15015
843.086	2.15885
843.382	2.18945
843.677	2.20889
843.973	2.2129
844.268	2.22441
844.564	2.25274
844.859	2.24912
845.154	2.27445
845.45	2.25193
845.745	2.291
846.04	2.32331
846.335	2.356
846.63	2.3638
846.925	2.41417
847.22	2.41301
847.515	2.46199
847.81	2.47137
848.104	2.4583
848.399	2.4656
848.694	2.47239
848.988	2.54818
849.283	2.66529
849.578	2.6784
849.872	2.75957
850.166	2.78429
850.461	2.86248
850.755	2.88386
851.049	2.79536
851.343	2.73221
851.638	2.76174
851.932	2.86102
852.226	2.99136
852.52	3.06294
852.814	3.17081
853.107	3.45507
853.401	3.54058
853.695	3.77382
853.989	3.84258
854.282	3.9665
854.576	4.08489
854.869	4.24059
855.163	4.0635
855.456	4.46863
855.75	4.4426
856.043	4.18968
856.336	4.39884
856.63	4.41352
856.923	4.14905
857.216	4.33013
857.509	3.62243
857.802	3.66281
858.095	3.71627
858.388	3.14826
858.681	3.38439
858.974	3.48677
859.266	3.63377
859.559	4.24029
859.852	4.07258
860.144	4.24783
860.437	4.71976
860.729	4.00988
861.022	4.2621
861.314	3.90312
861.606	3.49047
861.899	3.48182
862.191	3.26024
862.483	2.7929
862.775	3.08459
863.067	3.26042
863.359	3.25693
863.651	3.70877
863.943	4.01053
864.235	3.7336
864.527	3.92042
864.819	3.84958
865.11	3.93017
865.402	3.79665
865.693	3.27747
865.985	3.39125
866.276	3.54174
866.568	3.59249
866.859	3.65221
867.151	3.38792
867.442	3.66765
867.733	4.21889
868.024	4.20181
868.315	4.43202
868.606	4.38302
868.897	4.52804
869.188	4.51407
869.479	4.60331
869.77	4.42488
870.061	4.01073
870.351	3.87947
870.642	3.88614
870.933	3.61342
871.223	3.55728
871.514	3.3758
871.804	3.27965
872.095	3.35109
872.385	3.39708
872.675	3.38134
