Data from oven-75C-5d_empty_Absorbance_08-43-40-697.txt Node
Date: Tue Aug 29 08:43:40 EDT 2023
User: UV-vis
Spectrometer: FLMS04918
Trigger mode: 0
Integration Time (sec): 1.000000E-1
Scans to average: 3
Electric dark correction enabled: true
Nonlinearity correction enabled: false
Boxcar width: 3
XAxis mode: Wavelengths
Number of Pixels in Spectrum: 2048
>>>>>Begin Spectral Data<<<<<
179.23	0.14771
179.611	0.00866
179.992	-0.02627
180.373	-0.02086
180.754	-0.13765
181.134	-0.23136
181.515	-0.78591
181.896	-1.58495
182.276	-0.55719
182.657	-0.53102
183.038	-0.63483
183.418	-0.57461
183.799	-0.20381
184.179	-0.07602
184.56	-0
184.94	0.22605
185.32	-0.23309
185.701	-0.82754
186.081	-0
186.461	-0
186.842	-0.04929
187.222	-0.00966
187.602	-0.00464
187.982	-0.00288
188.362	-0.00166
188.742	-0.00075
189.122	-0.00023
189.502	-0.00113
189.882	-0.00181
190.262	-0.00129
190.642	-0.00187
191.022	-0.00174
191.402	-0.00214
191.781	-0.00214
192.161	-0.00161
192.541	-0.00019
192.92	-0.00058
193.3	-0.00041
193.68	0.00049
194.059	0.0005
194.439	0.00096
194.818	0.00209
195.198	0.00136
195.577	0.00164
195.957	0.00243
196.336	0.00254
196.715	0.0034
197.094	0.00273
197.474	0.00244
197.853	0.00181
198.232	0.00096
198.611	0.00032
198.99	0.00089
199.369	0.0002
199.748	-0.0003
200.127	-0.00088
200.506	-0.00084
200.885	-0.0013
201.264	-0.00105
201.643	-0.00193
202.022	-0.00088
202.401	0.00068
202.779	0.00114
203.158	0.00178
203.537	0.0029
203.915	0.0031
204.294	0.00274
204.673	0.00202
205.051	0.00145
205.43	0.00065
205.808	-0.00025
206.187	-0.00116
206.565	-0.00133
206.943	-0.00154
207.322	-0.00194
207.7	-0.00288
208.078	-0.00197
208.456	-0.00049
208.835	0.00026
209.213	0.00091
209.591	0.00055
209.969	0.00138
210.347	0.00102
210.725	0.00068
211.103	-0.0006
211.481	-0.00074
211.859	-0.00121
212.237	-0.00045
212.614	-0.00149
212.992	-0.00127
213.37	-0.00096
213.748	-0.00099
214.125	-0.00143
214.503	-0.00171
214.881	-0.00209
215.258	-0.00208
215.636	-0.00094
216.013	-0.00027
216.391	0.00041
216.768	0.00064
217.145	0.00057
217.523	0.00103
217.9	0.00162
218.277	0.00236
218.655	0.00179
219.032	0.00207
219.409	0.00272
219.786	0.00258
220.163	0.00191
220.54	0.00226
220.917	0.00068
221.294	-0.00008
221.671	-0.00059
222.048	-0.00129
222.425	-0.00052
222.802	-0.00026
223.179	-0.00101
223.556	-0.00014
223.932	0.00127
224.309	0.00129
224.686	0.00169
225.062	0.00179
225.439	0.00176
225.815	0.00264
226.192	0.00199
226.568	0.00114
226.945	0.00235
227.321	0.00222
227.698	0.00134
228.074	0.00166
228.45	0.00088
228.827	0.00059
229.203	0.00091
229.579	-0.00057
229.955	-0.00018
230.331	-0
230.707	0.00029
231.083	0.00059
231.46	0.00145
231.835	0.00202
232.211	0.00195
232.587	0.00092
232.963	0.00177
233.339	0.00242
233.715	0.00265
234.091	0.00182
234.466	0.0016
234.842	0.00202
235.218	0.00268
235.593	0.00204
235.969	0.00141
236.344	0.00058
236.72	0.00077
237.095	-0.00078
237.471	-0.0013
237.846	-0.00206
238.222	-0.00226
238.597	-0.00316
238.972	-0.00284
239.348	-0.00217
239.723	-0.0014
240.098	-0.00137
240.473	0.00007
240.848	-0.00024
241.223	-0.00103
241.598	-0.00102
241.973	-0.00167
242.348	-0.00133
242.723	-0.00069
243.098	-0.00145
243.473	-0.0017
243.848	-0.00079
244.223	-0.00013
244.597	0.00037
244.972	-0.00008
245.347	0.0001
245.721	-0.00039
246.096	0.00036
246.47	0.00036
246.845	-0.0001
247.219	-0.0004
247.594	-0.0008
247.968	-0.00058
248.343	0.0006
248.717	0.0003
249.091	0.00047
249.466	0.00061
249.84	0.00059
250.214	0.00136
250.588	0.00002
250.962	0.00011
251.336	-0.00006
251.71	0.00056
252.084	0.00126
252.458	0.00071
252.832	-0.00027
253.206	0.00087
253.58	0.00114
253.954	0.00182
254.328	0.00096
254.702	0.0005
255.075	0.00004
255.449	0.00002
255.823	-0.00057
256.196	-0.00188
256.57	-0.00175
256.943	-0.00156
257.317	-0.00175
257.69	-0.00088
258.064	-0.00015
258.437	0.00019
258.81	-0.00013
259.184	-0.00029
259.557	0.00002
259.93	-0.00016
260.303	-0.00016
260.677	-0.00099
261.05	-0.00086
261.423	0.00053
261.796	0.00072
262.169	0.00025
262.542	-0.00031
262.915	-0.00087
263.288	-0.00055
263.661	-0.00133
264.033	-0.00227
264.406	-0.00343
264.779	-0.00321
265.152	-0.00265
265.524	-0.00242
265.897	-0.00185
266.27	-0.00104
266.642	0.00003
267.015	0.00028
267.387	0.00034
267.76	-0.00056
268.132	-0.00023
268.504	-0.0011
268.877	-0.00118
269.249	-0.00145
269.621	-0.00012
269.994	0.00023
270.366	0.00133
270.738	0.00098
271.11	0.00182
271.482	0.0019
271.854	0.00118
272.226	0.00037
272.598	0.00043
272.97	0.00018
273.342	0.00048
273.714	0.00112
274.086	0.00063
274.458	0.00107
274.829	0.00068
275.201	0.00114
275.573	0.00105
275.944	0.00151
276.316	0.00087
276.688	0.00134
277.059	0.00183
277.431	0.00126
277.802	-0.0004
278.173	0.0005
278.545	-0.00041
278.916	-0.00032
279.287	-0.00047
279.659	-0.0011
280.03	-0.00081
280.401	-0.00034
280.772	-0.00137
281.143	-0.00091
281.515	-0.00149
281.886	-0.00216
282.257	-0.00206
282.628	-0.00183
282.998	-0.00166
283.369	-0.00134
283.74	-0.00127
284.111	-0.00088
284.482	-0.00038
284.853	-0.00038
285.223	-0.00022
285.594	-0.00011
285.965	-0.00011
286.335	-0.00011
286.706	-0.00011
287.076	-0.00011
287.447	-0.00011
287.817	-0.00011
288.188	-0.00011
288.558	-0.00011
288.928	-0.00011
289.299	-0.00011
289.669	-0.00011
290.039	-0.00011
290.409	-0.00011
290.779	-0.00011
291.149	-0.00011
291.52	-0.00011
291.89	-0.00011
292.26	-0.00011
292.629	-0.00011
292.999	-0.00011
293.369	-0.00011
293.739	-0.00011
294.109	-0.00011
294.479	-0.00011
294.848	-0.00011
295.218	-0.00011
295.588	-0.00011
295.957	-0.00011
296.327	-0.00011
296.696	-0.00011
297.066	-0.00011
297.435	-0.00011
297.805	-0.00011
298.174	-0.00011
298.544	-0.00011
298.913	-0.00011
299.282	-0.00011
299.651	-0.00011
300.021	-0.00011
300.39	-0.00011
300.759	-0.00011
301.128	-0.00011
301.497	-0.00011
301.866	-0.00011
302.235	-0.00011
302.604	-0.00011
302.973	-0.00011
303.342	-0.00011
303.71	-0.00011
304.079	-0.00011
304.448	-0.00011
304.817	-0.00011
305.185	-0.00011
305.554	-0.00011
305.923	-0.00011
306.291	-0.00011
306.66	-0.00011
307.028	-0.00011
307.397	-0.00011
307.765	-0.00011
308.133	-0.00011
308.502	-0.00011
308.87	-0.00011
309.238	-0.00011
309.606	-0.00011
309.975	-0.00011
310.343	-0.00011
310.711	-0.00011
311.079	-0.00011
311.447	-0.00011
311.815	-0.00011
312.183	-0.00011
312.551	-0.00011
312.919	-0.00011
313.286	-0.00011
313.654	-0.00011
314.022	-0.00011
314.39	-0.00011
314.757	-0.00011
315.125	-0.00011
315.492	-0.00011
315.86	-0.00011
316.228	-0.00011
316.595	-0.00011
316.962	-0.00011
317.33	-0.00011
317.697	-0.00011
318.065	-0.00011
318.432	-0.00011
318.799	-0.00011
319.166	-0.00011
319.534	-0.00011
319.901	-0.00011
320.268	-0.00011
320.635	-0.00011
321.002	-0.00011
321.369	-0.00011
321.736	-0.00011
322.103	-0.00011
322.47	-0.00011
322.836	-0.00011
323.203	-0.00011
323.57	-0.00011
323.937	-0.00011
324.303	-0.00011
324.67	-0.00011
325.037	-0.00011
325.403	-0.00011
325.77	-0.00011
326.136	-0.00011
326.503	-0.00011
326.869	-0.00011
327.235	-0.00011
327.602	-0.00011
327.968	-0.00011
328.334	-0.00011
328.7	-0.00011
329.067	-0.00011
329.433	-0.00011
329.799	-0.00011
330.165	-0.00011
330.531	-0.00011
330.897	-0.00011
331.263	-0.00011
331.629	-0.00011
331.995	-0.00011
332.36	-0.00011
332.726	-0.00011
333.092	-0.00011
333.458	-0.00011
333.823	-0.00011
334.189	-0.00011
334.554	-0.00011
334.92	-0.00011
335.286	-0.00011
335.651	-0.00011
336.016	-0.00011
336.382	-0.00011
336.747	-0.00011
337.113	-0.00011
337.478	-0.00011
337.843	-0.00011
338.208	-0.00011
338.573	-0.00011
338.939	-0.00011
339.304	-0.00011
339.669	-0.00011
340.034	-0.00011
340.399	-0.00011
340.764	-0.00011
341.129	-0.00011
341.493	-0.00011
341.858	-0.00011
342.223	-0.00011
342.588	-0.00011
342.952	-0.00011
343.317	-0.00011
343.682	-0.00011
344.046	-0.00011
344.411	-0.00011
344.775	-0.00011
345.14	-0.00011
345.504	-0.00011
345.869	-0.00011
346.233	-0.00011
346.597	-0.00011
346.962	-0.00011
347.326	-0.00011
347.69	-0.00011
348.054	-0.00011
348.418	-0.00011
348.782	-0.00011
349.146	-0.00011
349.51	-0.00011
349.874	-0.00011
350.238	-0.00011
350.602	-0.00011
350.966	-0.00011
351.33	-0.00011
351.693	-0.00011
352.057	-0.00011
352.421	-0.00011
352.784	-0.00011
353.148	-0.00011
353.512	-0.00011
353.875	-0.00011
354.239	-0.00011
354.602	-0.00011
354.966	-0.00011
355.329	-0.00011
355.692	-0.00011
356.056	-0.00011
356.419	-0.00011
356.782	-0.00011
357.145	-0.00011
357.508	-0.00011
357.871	-0.00011
358.234	-0.00011
358.597	-0.00011
358.96	-0.00011
359.323	-0.00011
359.686	-0.00011
360.049	-0.00011
360.412	-0.00011
360.775	-0.00011
361.137	-0.00011
361.5	-0.00011
361.863	-0.00011
362.225	-0.00011
362.588	-0.00011
362.951	-0.00011
363.313	-0.00011
363.675	-0.00011
364.038	-0.00011
364.4	-0.00011
364.763	-0.00011
365.125	-0.00011
365.487	-0.00011
365.849	-0.00011
366.212	-0.00011
366.574	-0.00011
366.936	-0.00011
367.298	-0.00011
367.66	-0.00011
368.022	-0.00011
368.384	-0.00011
368.746	-0.00011
369.108	-0.00011
369.469	-0.00011
369.831	-0.00011
370.193	-0.00011
370.555	-0.00011
370.916	-0.00011
371.278	-0.00011
371.64	-0.00011
372.001	-0.00011
372.363	-0.00011
372.724	-0.00011
373.086	-0.00011
373.447	-0.00011
373.808	-0.00011
374.17	-0.00011
374.531	-0.00011
374.892	-0.00011
375.253	-0.00011
375.615	-0.00011
375.976	-0.00011
376.337	-0.00011
376.698	-0.00011
377.059	-0.00011
377.42	-0.00011
377.781	-0.00011
378.141	-0.00011
378.502	-0.00011
378.863	-0.00011
379.224	-0.00011
379.585	-0.00011
379.945	-0.00011
380.306	-0.00011
380.666	-0.00011
381.027	-0.00011
381.388	-0.00011
381.748	-0.00011
382.108	-0.00011
382.469	-0.00011
382.829	-0.00011
383.19	-0.00011
383.55	-0.00011
383.91	-0.00011
384.27	-0.00011
384.63	-0.00011
384.991	-0.00011
385.351	-0.00011
385.711	-0.00011
386.071	-0.00011
386.431	-0.00011
386.791	-0.00011
387.15	-0.00011
387.51	-0.00011
387.87	-0.00011
388.23	-0.00011
388.589	-0.00011
388.949	-0.00011
389.309	-0.00011
389.668	-0.00011
390.028	-0.00011
390.387	-0.00011
390.747	-0.00011
391.106	-0.00011
391.466	-0.00011
391.825	-0.00011
392.184	-0.00011
392.544	-0.00011
392.903	-0.00011
393.262	-0.00011
393.621	-0.00011
393.98	-0.00011
394.339	-0.00011
394.698	-0.00011
395.057	-0.00011
395.416	-0.00011
395.775	-0.00011
396.134	-0.00011
396.493	-0.00011
396.852	-0.00011
397.211	-0.00011
397.569	-0.00011
397.928	-0.00011
398.287	-0.00011
398.645	-0.00011
399.004	-0.00011
399.362	-0.00011
399.721	-0.00011
400.079	-0.00011
400.438	-0.00011
400.796	-0.00011
401.154	-0.00011
401.512	-0.00011
401.871	-0.00011
402.229	-0.00011
402.587	-0.00011
402.945	-0.00011
403.303	-0.00011
403.661	-0.00011
404.019	-0.00011
404.377	-0.00011
404.735	-0.00011
405.093	-0.00011
405.451	-0.00011
405.808	-0.00011
406.166	-0.00011
406.524	-0.00011
406.882	-0.00011
407.239	-0.00011
407.597	-0.00011
407.954	-0.00011
408.312	-0.00011
408.669	-0.00011
409.027	-0.00011
409.384	-0.00011
409.741	-0.00011
410.099	-0.00011
410.456	-0.00011
410.813	-0.00011
411.17	-0.00011
411.527	-0.00011
411.884	-0.00011
412.242	-0.00011
412.599	-0.00011
412.956	-0.00011
413.312	-0.00011
413.669	-0.00011
414.026	-0.00011
414.383	-0.00011
414.74	-0.00011
415.096	-0.00011
415.453	-0.00011
415.81	-0.00011
416.166	-0.00011
416.523	-0.00011
416.879	-0.00011
417.236	-0.00011
417.592	-0.00011
417.949	-0.00011
418.305	-0.00011
418.661	-0.00011
419.018	-0.00011
419.374	-0.00011
419.73	-0.00011
420.086	-0.00011
420.442	-0.00011
420.798	-0.00011
421.154	-0.00011
421.51	-0.00011
421.866	-0.00011
422.222	-0.00011
422.578	-0.00011
422.934	-0.00011
423.29	-0.00011
423.646	-0.00011
424.001	-0.00011
424.357	-0.00011
424.713	-0.00011
425.068	-0.00011
425.424	-0.00011
425.779	-0.00011
426.135	-0.00011
426.49	-0.00011
426.845	-0.00011
427.201	-0.00011
427.556	-0.00011
427.911	-0.00011
428.266	-0.00011
428.622	-0.00011
428.977	-0.00011
429.332	-0.00011
429.687	-0.00011
430.042	-0.00011
430.397	-0.00011
430.752	-0.00011
431.107	-0.00011
431.461	-0.00011
431.816	-0.00011
432.171	-0.00011
432.526	-0.00011
432.88	-0.00011
433.235	-0.00011
433.59	-0.00011
433.944	-0.00011
434.299	-0.00011
434.653	-0.00011
435.008	-0.00011
435.362	-0.00011
435.716	-0.00011
436.071	-0.00011
436.425	-0.00011
436.779	-0.00011
437.133	-0.00011
437.487	-0.00011
437.841	-0.00011
438.195	-0.00011
438.549	-0.00011
438.903	-0.00011
439.257	-0.00011
439.611	-0.00011
439.965	-0.00011
440.319	-0.00011
440.673	-0.00011
441.026	-0.00011
441.38	-0.00011
441.734	-0.00011
442.087	-0.00011
442.441	-0.00011
442.794	-0.00011
443.148	-0.00011
443.501	-0.00011
443.855	-0.00011
444.208	-0.00011
444.561	-0.00011
444.915	-0.00011
445.268	-0.00011
445.621	-0.00011
445.974	-0.00011
446.327	-0.00011
446.68	-0.00011
447.033	-0.00011
447.386	-0.00011
447.739	-0.00011
448.092	-0.00011
448.445	-0.00011
448.798	-0.00011
449.15	-0.00011
449.503	-0.00011
449.856	-0.00011
450.209	-0.00011
450.561	-0.00011
450.914	-0.00011
451.266	-0.00011
451.619	-0.00011
451.971	-0.00011
452.323	-0.00011
452.676	-0.00011
453.028	-0.00011
453.38	-0.00011
453.733	-0.00011
454.085	-0.00011
454.437	-0.00011
454.789	-0.00011
455.141	-0.00011
455.493	-0.00011
455.845	-0.00011
456.197	-0.00011
456.549	-0.00011
456.901	-0.00011
457.253	-0.00011
457.604	-0.00011
457.956	-0.00011
458.308	-0.00011
458.659	-0.00011
459.011	-0.00011
459.362	-0.00011
459.714	-0.00011
460.065	-0.00011
460.417	-0.00011
460.768	-0.00011
461.12	-0.00011
461.471	-0.00011
461.822	-0.00011
462.173	-0.00011
462.525	-0.00011
462.876	-0.00011
463.227	-0.00011
463.578	-0.00011
463.929	-0.00011
464.28	-0.00011
464.631	-0.00011
464.982	-0.00011
465.332	-0.00011
465.683	-0.00011
466.034	-0.00011
466.385	-0.00011
466.735	-0.00011
467.086	-0.00011
467.437	-0.00011
467.787	-0.00011
468.138	-0.00011
468.488	-0.00011
468.839	-0.00011
469.189	-0.00011
469.539	-0.00011
469.89	-0.00011
470.24	-0.00011
470.59	-0.00011
470.94	-0.00011
471.29	-0.00011
471.64	-0.00011
471.99	-0.00011
472.34	-0.00011
472.69	-0.00011
473.04	-0.00011
473.39	-0.00011
473.74	-0.00011
474.09	-0.00011
474.439	-0.00011
474.789	-0.00011
475.139	-0.00011
475.488	-0.00011
475.838	-0.00011
476.188	-0.00011
476.537	-0.00011
476.886	-0.00011
477.236	-0.00011
477.585	-0.00011
477.935	-0.00011
478.284	-0.00011
478.633	-0.00011
478.982	-0.00011
479.331	-0.00011
479.68	-0.00011
480.03	-0.00011
480.379	-0.00011
480.728	-0.00011
481.076	-0.00011
481.425	-0.00011
481.774	-0.00011
482.123	-0.00011
482.472	-0.00011
482.821	-0.00011
483.169	-0.00011
483.518	-0.00011
483.866	-0.00011
484.215	-0.00011
484.563	-0.00011
484.912	-0.00011
485.26	-0.00011
485.609	-0.00011
485.957	-0.00011
486.305	-0.00011
486.654	-0.00011
487.002	-0.00011
487.35	-0.00011
487.698	-0.00011
488.046	-0.00011
488.394	-0.00011
488.742	-0.00011
489.09	-0.00011
489.438	-0.00011
489.786	-0.00011
490.134	-0.00011
490.482	-0.00011
490.829	-0.00011
491.177	-0.00011
491.525	-0.00011
491.872	-0.00011
492.22	-0.00011
492.567	-0.00011
492.915	-0.00011
493.262	-0.00011
493.61	-0.00011
493.957	-0.00011
494.304	-0.00011
494.652	-0.00011
494.999	-0.00011
495.346	-0.00011
495.693	-0.00011
496.04	-0.00011
496.387	-0.00011
496.734	-0.00011
497.081	-0.00011
497.428	-0.00011
497.775	-0.00011
498.122	-0.00011
498.469	-0.00011
498.816	-0.00011
499.162	-0.00011
499.509	-0.00011
499.856	-0.00011
500.202	-0.00011
500.549	-0.00011
500.895	-0.00011
501.242	-0.00011
501.588	-0.00011
501.935	-0.00011
502.281	-0.00011
502.627	-0.00011
502.973	-0.00011
503.32	-0.00011
503.666	-0.00011
504.012	-0.00011
504.358	-0.00011
504.704	-0.00011
505.05	-0.00011
505.396	-0.00011
505.742	-0.00011
506.088	-0.00011
506.433	-0.00011
506.779	-0.00011
507.125	-0.00011
507.471	-0.00011
507.816	-0.00011
508.162	-0.00011
508.507	-0.00011
508.853	-0.00011
509.198	-0.00011
509.544	-0.00011
509.889	-0.00011
510.234	-0.00011
510.58	-0.00011
510.925	-0.00011
511.27	-0.00011
511.615	-0.00011
511.96	-0.00011
512.306	-0.00011
512.651	-0.00011
512.996	-0.00011
513.341	-0.00011
513.685	-0.00011
514.03	-0.00011
514.375	-0.00011
514.72	-0.00011
515.065	-0.00011
515.409	-0.00011
515.754	-0.00011
516.099	-0.00011
516.443	-0.00011
516.788	-0.00011
517.132	-0.00011
517.476	-0.00011
517.821	-0.00011
518.165	-0.00011
518.51	-0.00011
518.854	-0.00011
519.198	-0.00011
519.542	-0.00011
519.886	-0.00011
520.23	-0.00011
520.574	-0.00011
520.918	-0.00011
521.262	-0.00011
521.606	-0.00011
521.95	-0.00011
522.294	-0.00011
522.638	-0.00011
522.981	-0.00011
523.325	-0.00011
523.669	-0.00011
524.012	-0.00011
524.356	-0.00011
524.699	-0.00011
525.043	-0.00011
525.386	-0.00011
525.73	-0.00011
526.073	-0.00011
526.416	-0.00011
526.76	-0.00011
527.103	-0.00011
527.446	-0.00011
527.789	-0.00011
528.132	-0.00011
528.475	-0.00011
528.818	-0.00011
529.161	-0.00011
529.504	-0.00011
529.847	-0.00011
530.19	-0.00011
530.532	-0.00011
530.875	-0.00011
531.218	-0.00011
531.56	-0.00011
531.903	-0.00011
532.246	-0.00011
532.588	-0.00011
532.93	-0.00011
533.273	-0.00011
533.615	-0.00011
533.958	-0.00011
534.3	-0.00011
534.642	-0.00011
534.984	-0.00011
535.326	-0.00011
535.669	-0.00011
536.011	-0.00011
536.353	-0.00011
536.695	-0.00011
537.037	-0.00011
537.378	-0.00011
537.72	-0.00011
538.062	-0.00011
538.404	-0.00011
538.746	-0.00011
539.087	-0.00011
539.429	-0.00011
539.77	-0.00011
540.112	-0.00011
540.454	-0.00011
540.795	-0.00011
541.136	-0.00011
541.478	-0.00011
541.819	-0.00011
542.16	-0.00011
542.502	-0.00011
542.843	-0.00011
543.184	-0.00011
543.525	-0.00011
543.866	-0.00011
544.207	-0.00011
544.548	-0.00011
544.889	-0.00011
545.23	-0.00011
545.571	-0.00011
545.911	-0.00011
546.252	-0.00011
546.593	-0.00011
546.934	-0.00011
547.274	-0.00011
547.615	-0.00011
547.955	-0.00011
548.296	-0.00011
548.636	-0.00011
548.977	-0.00011
549.317	-0.00011
549.657	-0.00011
549.997	-0.00011
550.338	-0.00011
550.678	-0.00011
551.018	-0.00011
551.358	-0.00011
551.698	-0.00011
552.038	-0.00011
552.378	-0.00011
552.718	-0.00011
553.058	-0.00011
553.398	-0.00011
553.737	-0.00011
554.077	-0.00011
554.417	-0.00011
554.756	-0.00011
555.096	-0.00011
555.435	-0.00011
555.775	-0.00011
556.114	-0.00011
556.454	-0.00011
556.793	-0.00011
557.133	-0.00011
557.472	-0.00011
557.811	-0.00011
558.15	-0.00011
558.489	-0.00011
558.829	-0.00011
559.168	-0.00011
559.507	-0.00011
559.846	-0.00011
560.184	-0.00011
560.523	-0.00011
560.862	-0.00011
561.201	-0.00011
561.54	-0.00011
561.878	-0.00011
562.217	-0.00011
562.556	-0.00011
562.894	-0.00011
563.233	-0.00011
563.571	-0.00011
563.91	-0.00011
564.248	-0.00011
564.586	-0.00011
564.925	-0.00011
565.263	-0.00011
565.601	-0.00011
565.939	-0.00011
566.277	-0.00011
566.616	-0.00011
566.954	-0.00011
567.292	-0.00011
567.63	-0.00011
567.967	-0.00011
568.305	-0.00011
568.643	-0.00011
568.981	-0.00011
569.319	-0.00011
569.656	-0.00011
569.994	-0.00011
570.331	-0.00011
570.669	-0.00011
571.006	-0.00011
571.344	-0.00011
571.681	-0.00011
572.019	-0.00011
572.356	-0.00011
572.693	-0.00011
573.03	-0.00011
573.368	-0.00011
573.705	-0.00011
574.042	-0.00011
574.379	-0.00011
574.716	-0.00011
575.053	-0.00011
575.39	-0.00011
575.727	-0.00011
576.063	-0.00011
576.4	-0.00011
576.737	-0.00011
577.074	-0.00011
577.41	-0.00011
577.747	-0.00011
578.083	-0.00011
578.42	-0.00011
578.756	-0.00011
579.093	-0.00011
579.429	-0.00011
579.766	-0.00011
580.102	-0.00011
580.438	-0.00011
580.774	-0.00011
581.11	-0.00011
581.446	-0.00011
581.782	-0.00011
582.119	-0.00011
582.454	-0.00011
582.79	-0.00011
583.126	-0.00011
583.462	-0.00011
583.798	-0.00011
584.134	-0.00011
584.469	-0.00011
584.805	-0.00011
585.141	-0.00011
585.476	-0.00011
585.812	-0.00011
586.147	-0.00011
586.482	-0.00011
586.818	-0.00011
587.153	-0.00011
587.488	-0.00011
587.824	-0.00011
588.159	-0.00011
588.494	-0.00011
588.829	-0.00011
589.164	-0.00011
589.499	-0.00011
589.834	-0.00011
590.169	-0.00011
590.504	-0.00011
590.839	-0.00011
591.174	-0.00011
591.508	-0.00011
591.843	-0.00011
592.178	-0.00011
592.512	-0.00011
592.847	-0.00011
593.181	-0.00011
593.516	-0.00011
593.85	-0.00011
594.185	-0.00011
594.519	-0.00011
594.853	-0.00011
595.187	-0.00011
595.522	-0.00011
595.856	-0.00011
596.19	-0.00011
596.524	-0.00011
596.858	-0.00011
597.192	-0.00011
597.526	-0.00011
597.86	-0.00011
598.194	-0.00011
598.527	-0.00011
598.861	-0.00011
599.195	-0.00011
599.528	-0.00011
599.862	-0.00011
600.196	-0.00011
600.529	-0.00011
600.863	-0.00011
601.196	-0.00011
601.529	-0.00011
601.863	-0.00011
602.196	-0.00011
602.529	-0.00011
602.862	-0.00011
603.196	-0.00011
603.529	-0.00011
603.862	-0.00011
604.195	-0.00011
604.528	-0.00011
604.861	-0.00011
605.193	-0.00011
605.526	-0.00011
605.859	-0.00011
606.192	-0.00011
606.524	-0.00011
606.857	-0.00011
607.19	-0.00011
607.522	-0.00011
607.855	-0.00011
608.187	-0.00011
608.52	-0.00011
608.852	-0.00011
609.184	-0.00011
609.517	-0.00011
609.849	-0.00011
610.181	-0.00011
610.513	-0.00011
610.845	-0.00011
611.177	-0.00011
611.509	-0.00011
611.841	-0.00011
612.173	-0.00011
612.505	-0.00011
612.837	-0.00011
613.169	-0.00011
613.5	-0.00011
613.832	-0.00011
614.164	-0.00011
614.495	-0.00011
614.827	-0.00011
615.158	-0.00011
615.49	-0.00011
615.821	-0.00011
616.152	-0.00011
616.484	-0.00011
616.815	-0.00011
617.146	-0.00011
617.477	-0.00011
617.808	-0.00011
618.14	-0.00011
618.471	-0.00011
618.802	-0.00011
619.133	-0.00011
619.463	-0.00011
619.794	-0.00011
620.125	-0.00011
620.456	-0.00011
620.787	-0.00011
621.117	-0.00011
621.448	-0.00011
621.778	-0.00011
622.109	-0.00011
622.439	-0.00011
622.77	-0.00011
623.1	-0.00011
623.43	-0.00011
623.761	-0.00011
624.091	-0.00011
624.421	-0.00011
624.751	-0.00011
625.081	-0.00011
625.412	-0.00011
625.742	-0.00011
626.072	-0.00011
626.401	-0.00011
626.731	-0.00011
627.061	-0.00011
627.391	-0.00011
627.721	-0.00011
628.05	-0.00011
628.38	-0.00011
628.71	-0.00011
629.039	-0.00011
629.369	-0.00011
629.698	-0.00011
630.028	-0.00011
630.357	-0.00011
630.686	-0.00011
631.015	-0.00011
631.345	-0.00011
631.674	-0.00011
632.003	-0.00011
632.332	-0.00011
632.661	-0.00011
632.99	-0.00011
633.319	-0.00011
633.648	-0.00011
633.977	-0.00011
634.306	-0.00011
634.634	-0.00011
634.963	-0.00011
635.292	-0.00011
635.62	-0.00011
635.949	-0.00011
636.277	-0.00011
636.606	-0.00011
636.934	-0.00011
637.263	-0.00011
637.591	-0.00011
637.919	-0.00011
638.248	-0.00011
638.576	-0.00011
638.904	-0.00011
639.232	-0.00011
639.56	-0.00011
639.888	-0.00011
640.216	-0.00011
640.544	-0.00011
640.872	-0.00011
641.2	-0.00011
641.528	-0.00011
641.855	-0.00011
642.183	-0.00011
642.511	-0.00011
642.838	-0.00011
643.166	-0.00011
643.493	-0.00011
643.821	-0.00011
644.148	-0.00011
644.475	-0.00011
644.803	-0.00011
645.13	-0.00011
645.457	-0.00011
645.784	-0.00011
646.112	-0.00011
646.439	-0.00011
646.766	-0.00011
647.093	-0.00011
647.42	-0.00011
647.746	-0.00011
648.073	-0.00011
648.4	-0.00011
648.727	-0.00011
649.053	-0.00011
649.38	-0.00011
649.707	-0.00011
650.033	-0.00011
650.36	-0.00011
650.686	-0.00011
651.013	-0.00011
651.339	-0.00011
651.665	-0.00011
651.992	-0.00011
652.318	-0.00011
652.644	-0.00011
652.97	-0.00011
653.296	-0.00011
653.622	-0.00011
653.948	-0.00011
654.274	-0.00011
654.6	-0.00011
654.926	-0.00011
655.252	-0.00011
655.578	-0.00011
655.903	-0.00011
656.229	-0.00011
656.555	-0.00011
656.88	-0.00011
657.206	-0.00011
657.531	-0.00011
657.857	-0.00011
658.182	-0.00011
658.507	-0.00011
658.833	-0.00011
659.158	-0.00011
659.483	-0.00011
659.808	-0.00011
660.133	-0.00011
660.458	-0.00011
660.783	-0.00011
661.108	-0.00011
661.433	-0.00011
661.758	-0.00011
662.083	-0.00011
662.408	-0.00011
662.732	-0.00011
663.057	-0.00011
663.382	-0.00011
663.706	-0.00011
664.031	-0.00011
664.355	-0.00011
664.68	-0.00011
665.004	-0.00011
665.328	-0.00011
665.653	-0.00011
665.977	-0.00011
666.301	-0.00011
666.625	-0.00011
666.949	-0.00011
667.273	-0.00011
667.597	-0.00011
667.921	-0.00011
668.245	-0.00011
668.569	-0.00011
668.893	-0.00011
669.217	-0.00011
669.54	-0.00011
669.864	-0.00011
670.188	-0.00011
670.511	-0.00011
670.835	-0.00011
671.158	-0.00011
671.482	-0.00011
671.805	-0.00011
672.128	-0.00011
672.452	-0.00011
672.775	-0.00011
673.098	-0.00011
673.421	-0.00011
673.744	-0.00011
674.068	-0.00011
674.391	-0.00011
674.714	-0.00011
675.036	-0.00011
675.359	-0.00011
675.682	-0.00011
676.005	-0.00011
676.328	-0.00011
676.65	-0.00011
676.973	-0.00011
677.295	-0.00011
677.618	-0.00011
677.94	-0.00011
678.263	-0.00011
678.585	-0.00011
678.908	-0.00011
679.23	-0.00011
679.552	-0.00011
679.874	-0.00011
680.196	-0.00011
680.519	-0.00011
680.841	-0.00011
681.163	-0.00011
681.485	-0.00011
681.807	-0.00011
682.128	-0.00011
682.45	-0.00011
682.772	-0.00011
683.094	-0.00011
683.415	-0.00011
683.737	-0.00011
684.059	-0.00011
684.38	-0.00011
684.702	-0.00011
685.023	-0.00011
685.344	-0.00011
685.666	-0.00011
685.987	-0.00011
686.308	-0.00011
686.629	-0.00011
686.95	-0.00011
687.272	-0.00011
687.593	-0.00011
687.914	-0.00011
688.235	-0.00011
688.555	-0.00011
688.876	-0.00011
689.197	-0.00011
689.518	-0.00011
689.839	-0.00011
690.159	-0.00011
690.48	-0.00011
690.8	-0.00011
691.121	-0.00011
691.441	-0.00011
691.762	-0.00011
692.082	-0.00011
692.402	-0.00011
692.723	-0.00011
693.043	-0.00011
693.363	-0.00011
693.683	-0.00011
694.003	-0.00011
694.323	-0.00011
694.643	-0.00011
694.963	-0.00011
695.283	-0.00011
695.603	-0.00011
695.923	-0.00011
696.243	-0.00011
696.562	-0.00011
696.882	-0.00011
697.202	-0.00011
697.521	-0.00011
697.841	-0.00011
698.16	-0.00011
698.479	-0.00011
698.799	-0.00011
699.118	-0.00011
699.437	-0.00011
699.757	-0.00011
700.076	-0.00011
700.395	-0.00011
700.714	-0.00011
701.033	-0.00011
701.352	-0.00011
701.671	-0.00011
701.99	-0.00011
702.308	-0.00011
702.627	-0.00011
702.946	-0.00011
703.265	-0.00011
703.583	-0.00011
703.902	-0.00011
704.22	-0.00011
704.539	-0.00011
704.857	-0.00011
705.176	-0.00011
705.494	-0.00011
705.812	-0.00011
706.131	-0.00011
706.449	-0.00011
706.767	-0.00011
707.085	-0.00011
707.403	-0.00011
707.721	-0.00011
708.039	-0.00011
708.357	-0.00011
708.675	-0.00011
708.993	-0.00011
709.31	-0.00011
709.628	-0.00011
709.946	-0.00011
710.263	-0.00011
710.581	-0.00011
710.898	-0.00011
711.216	-0.00011
711.533	-0.00011
711.851	-0.00011
712.168	-0.00011
712.485	-0.00011
712.802	-0.00011
713.12	-0.00011
713.437	-0.00011
713.754	-0.00011
714.071	-0.00011
714.388	-0.00011
714.705	-0.00011
715.022	-0.00011
715.338	-0.00011
715.655	-0.00011
715.972	-0.00011
716.289	-0.00011
716.605	-0.00011
716.922	-0.00011
717.238	-0.00011
717.555	-0.00011
717.871	-0.00011
718.188	-0.00011
718.504	-0.00011
718.82	-0.00011
719.136	-0.00011
719.453	-0.00011
719.769	-0.00011
720.085	-0.00011
720.401	-0.00011
720.717	-0.00011
721.033	-0.00011
721.349	-0.00011
721.665	-0.00011
721.98	-0.00011
722.296	-0.00011
722.612	-0.00011
722.927	-0.00011
723.243	-0.00011
723.559	-0.00011
723.874	-0.00011
724.19	-0.00011
724.505	-0.00011
724.82	-0.00011
725.136	-0.00011
725.451	-0.00011
725.766	-0.00011
726.081	-0.00011
726.396	-0.00011
726.711	-0.00011
727.026	-0.00011
727.341	-0.00011
727.656	-0.00011
727.971	-0.00011
728.286	-0.00011
728.601	-0.00011
728.916	-0.00011
729.23	-0.00011
729.545	-0.00011
729.859	-0.00011
730.174	-0.00011
730.488	-0.00011
730.803	-0.00011
731.117	-0.00011
731.431	-0.00011
731.746	-0.00011
732.06	-0.00011
732.374	-0.00011
732.688	-0.00011
733.002	-0.00011
733.316	-0.00011
733.63	-0.00011
733.944	-0.00011
734.258	-0.00011
734.572	-0.00011
734.886	-0.00011
735.199	-0.00011
735.513	-0.00011
735.827	-0.00011
736.14	-0.00011
736.454	-0.00011
736.767	-0.00011
737.081	-0.00011
737.394	-0.00011
737.708	-0.00011
738.021	-0.00011
738.334	-0.00011
738.647	-0.00011
738.96	-0.00011
739.273	-0.00011
739.587	-0.00011
739.9	-0.00011
740.212	-0.00011
740.525	-0.00011
740.838	-0.00011
741.151	-0.00011
741.464	-0.00011
741.776	-0.00011
742.089	-0.00011
742.402	-0.00011
742.714	-0.00011
743.027	-0.00011
743.339	-0.00011
743.651	-0.00011
743.964	-0.00011
744.276	-0.00011
744.588	-0.00011
744.901	-0.00011
745.213	-0.00011
745.525	-0.00011
745.837	-0.00011
746.149	-0.00011
746.461	-0.00011
746.773	-0.00011
747.085	-0.00011
747.396	-0.00011
747.708	-0.00011
748.02	-0.00011
748.331	-0.00011
748.643	-0.00011
748.955	-0.00011
749.266	-0.00011
749.577	-0.00011
749.889	-0.00011
750.2	-0.00011
750.512	-0.00011
750.823	-0.00011
751.134	-0.00011
751.445	-0.00011
751.756	-0.00011
752.067	-0.00011
752.378	-0.00011
752.689	-0.00011
753	-0.00011
753.311	-0.00011
753.622	-0.00011
753.932	-0.00011
754.243	-0.00011
754.554	-0.00011
754.864	-0.00011
755.175	-0.00011
755.485	-0.00011
755.796	-0.00011
756.106	-0.00011
756.417	-0.00011
756.727	-0.00011
757.037	-0.00011
757.347	-0.00011
757.658	-0.00011
757.968	-0.00011
758.278	-0.00011
758.588	-0.00011
758.898	-0.00011
759.208	-0.00011
759.517	-0.00011
759.827	-0.00011
760.137	-0.00011
760.447	-0.00011
760.756	-0.00011
761.066	-0.00011
761.375	-0.00011
761.685	-0.00011
761.994	-0.00011
762.304	-0.00011
762.613	-0.00011
762.922	-0.00011
763.232	-0.00011
763.541	-0.00011
763.85	-0.00011
764.159	-0.00011
764.468	-0.00011
764.777	-0.00011
765.086	-0.00011
765.395	-0.00011
765.704	-0.00011
766.013	-0.00011
766.321	-0.00011
766.63	-0.00011
766.939	-0.00011
767.247	-0.00011
767.556	-0.00011
767.864	-0.00011
768.173	-0.00011
768.481	-0.00011
768.789	-0.00011
769.098	-0.00011
769.406	-0.00011
769.714	-0.00011
770.022	-0.00011
770.33	-0.00011
770.638	-0.00011
770.946	-0.00011
771.254	-0.00011
771.562	-0.00011
771.87	-0.00011
772.178	-0.00011
772.486	-0.00011
772.793	-0.00011
773.101	-0.00011
773.408	-0.00011
773.716	-0.00011
774.023	-0.00011
774.331	-0.00011
774.638	-0.00011
774.946	-0.00011
775.253	-0.00011
775.56	-0.00011
775.867	-0.00011
776.174	-0.00011
776.481	-0.00011
776.788	-0.00011
777.095	-0.00011
777.402	-0.00011
777.709	-0.00011
778.016	-0.00011
778.323	-0.00011
778.63	-0.00011
778.936	-0.00011
779.243	-0.00011
779.549	-0.00011
779.856	-0.00011
780.162	-0.00011
780.469	-0.00011
780.775	-0.00011
781.082	-0.00011
781.388	-0.00011
781.694	-0.00011
782	-0.00011
782.306	-0.00011
782.612	-0.00011
782.918	-0.00011
783.224	-0.00011
783.53	-0.00011
783.836	-0.00011
784.142	-0.00011
784.448	-0.00011
784.753	-0.00011
785.059	-0.00011
785.365	-0.00011
785.67	-0.00011
785.976	-0.00011
786.281	-0.00011
786.586	-0.00011
786.892	-0.00011
787.197	-0.00011
787.502	-0.00011
787.808	-0.00011
788.113	-0.00011
788.418	-0.00011
788.723	-0.00011
789.028	-0.00011
789.333	-0.00011
789.638	-0.00011
789.942	-0.00011
790.247	-0.00011
790.552	-0.00011
790.857	-0.00011
791.161	-0.00011
791.466	-0.00011
791.77	-0.00011
792.075	-0.00011
792.379	-0.00011
792.684	-0.00011
792.988	-0.00011
793.292	-0.00011
793.597	-0.00011
793.901	-0.00011
794.205	-0.00011
794.509	-0.00011
794.813	-0.00011
795.117	-0.00011
795.421	-0.00011
795.725	-0.00011
796.029	-0.00011
796.332	-0.00011
796.636	-0.00011
796.94	-0.00011
797.243	-0.00011
797.547	-0.00011
797.85	-0.00011
798.154	-0.00011
798.457	-0.00011
798.761	-0.00011
799.064	-0.00011
799.367	-0.00011
799.67	-0.00011
799.973	-0.00011
800.277	-0.00011
800.58	-0.00011
800.883	-0.00011
801.186	-0.00011
801.488	-0.00011
801.791	-0.00011
802.094	-0.00011
802.397	-0.00011
802.699	-0.00011
803.002	-0.00011
803.305	-0.00011
803.607	-0.00011
803.91	-0.00011
804.212	-0.00011
804.515	-0.00011
804.817	-0.00011
805.119	-0.00011
805.421	-0.00011
805.724	-0.00011
806.026	-0.00011
806.328	-0.00011
806.63	-0.00011
806.932	-0.00011
807.234	-0.00011
807.535	-0.00011
807.837	-0.00011
808.139	-0.00011
808.441	-0.00011
808.742	-0.00011
809.044	-0.00011
809.346	-0.00011
809.647	-0.00011
809.948	-0.00011
810.25	-0.00011
810.551	-0.00011
810.853	-0.00011
811.154	-0.00011
811.455	-0.00011
811.756	-0.00011
812.057	-0.00011
812.358	-0.00011
812.659	-0.00011
812.96	-0.00011
813.261	-0.00011
813.562	-0.00011
813.863	-0.00011
814.163	-0.00011
814.464	-0.00011
814.765	-0.00011
815.065	-0.00011
815.366	-0.00011
815.666	-0.00011
815.967	-0.00011
816.267	-0.00011
816.567	-0.00011
816.868	-0.00011
817.168	-0.00011
817.468	-0.00011
817.768	-0.00011
818.068	-0.00011
818.368	-0.00011
818.668	-0.00011
818.968	-0.00011
819.268	-0.00011
819.568	-0.00011
819.867	-0.00011
820.167	-0.00011
820.467	-0.00011
820.766	-0.00011
821.066	-0.00011
821.365	-0.00011
821.665	-0.00011
821.964	-0.00011
822.263	-0.00011
822.563	-0.00011
822.862	-0.00011
823.161	-0.00011
823.46	-0.00011
823.759	-0.00011
824.058	-0.00011
824.357	-0.00011
824.656	-0.00011
824.955	-0.00011
825.254	-0.00011
825.552	-0.00011
825.851	-0.00011
826.15	-0.00011
826.448	-0.00011
826.747	-0.00011
827.045	-0.00011
827.344	-0.00011
827.642	-0.00011
827.941	-0.00011
828.239	-0.00011
828.537	-0.00011
828.835	-0.00011
829.133	-0.00011
829.432	-0.00011
829.73	-0.00001
830.028	0.00015
830.325	0.00023
830.623	0.00026
830.921	0.00047
831.219	0.00061
831.517	0.00069
831.814	0.00062
832.112	0.00032
832.409	0.00016
832.707	0.00009
833.004	0.0001
833.302	-0.00014
833.599	-0.0002
833.896	-0.00017
834.194	0.0002
834.491	0.00038
834.788	0.00042
835.085	-0.00037
835.382	-0.00021
835.679	-0.00028
835.976	-0.00082
836.273	-0.00124
836.57	-0.00153
836.866	-0.00118
837.163	-0.00061
837.46	-0.001
837.756	-0.00084
838.053	-0.00003
838.349	-0.00003
838.646	-0.00003
838.942	-0.00077
839.239	-0.0008
839.535	-0.00064
839.831	-0.00066
840.127	-0.00111
840.423	-0.00048
840.72	-0.00052
841.016	0.00019
841.312	-0.00007
841.607	0.00018
841.903	-0.00067
842.199	-0.00161
842.495	-0.00179
842.791	-0.00122
843.086	-0.0021
843.382	-0.00173
843.677	-0.00254
843.973	-0.00168
844.268	-0.00052
844.564	-0.00039
844.859	-0.00062
845.154	-0.00029
845.45	-0.00025
845.745	0.00073
846.04	0.00032
846.335	-0.00011
846.63	-0.00117
846.925	-0.00076
847.22	-0.00018
847.515	-0.00104
847.81	-0.0011
848.104	-0.00102
848.399	-0.00031
848.694	0.00058
848.988	-0.00017
849.283	-0.00086
849.578	0.00009
849.872	-0.00012
850.166	-0.00076
850.461	-0.00177
850.755	-0.00233
851.049	-0.00344
851.343	-0.00315
851.638	-0.00393
851.932	-0.00356
852.226	-0.00225
852.52	0.00015
852.814	0.00052
853.107	0.00367
853.401	0.00366
853.695	0.00506
853.989	0.00274
854.282	0.00376
854.576	0.00428
854.869	0.00245
855.163	-0.00231
855.456	-0.00283
855.75	-0.00178
856.043	0.00122
856.336	0.00238
856.63	-0.00162
856.923	-0.001
857.216	0.00108
857.509	0.00139
857.802	0.00002
858.095	-0.00045
858.388	-0.00217
858.681	-0.00473
858.974	-0.00369
859.266	-0.00256
859.559	-0.00242
859.852	-0.00695
860.144	-0.00762
860.437	-0.00805
860.729	-0.00905
861.022	-0.00579
861.314	-0.006
861.606	-0.00919
861.899	-0.00797
862.191	-0.00053
862.483	-0.00719
862.775	0.01071
863.067	0.00625
863.359	0.00898
863.651	0.01143
863.943	0.01786
864.235	0.01767
864.527	0.02148
864.819	0.00911
865.11	0.00937
865.402	0.00426
865.693	0.00705
865.985	-0.00398
866.276	-0.00985
866.568	-0.01272
866.859	-0.01761
867.151	-0.00494
867.442	-0.00175
867.733	-0.00256
868.024	0.00184
868.315	0.00188
868.606	0.00559
868.897	0.00982
869.188	-0.00421
869.479	-0.0028
869.77	-0.0077
870.061	-0.00412
870.351	0.00922
870.642	0.00644
870.933	0.00688
871.223	0.01747
871.514	0.0239
871.804	0.03603
872.095	0.04135
872.385	0.03111
872.675	0.04579
